#Step Temp KinEng PotEng Press 
       0           86    127.91848    -15.76389   0.99798053 
     100    85.999999    127.91848   -15.763889   0.99795281 
     200    85.999997    127.91848   -15.763886   0.99792522 
     300    85.999993    127.91847    -15.76388   0.99789776 
     400    85.999987    127.91846   -15.763871   0.99787044 
     500     85.99998    127.91845    -15.76386   0.99784326 
     600    85.999971    127.91844   -15.763847   0.99781621 
     700    85.999961    127.91842   -15.763831   0.99778929 
     800    85.999948    127.91841   -15.763813   0.99776251 
     900    85.999935    127.91839   -15.763793   0.99773587 
    1000    85.999919    127.91836    -15.76377   0.99770936 
    1100    85.999902    127.91834   -15.763744   0.99768299 
    1200    85.999883    127.91831   -15.763716   0.99765675 
    1300    85.999863    127.91828   -15.763686   0.99763064 
    1400    85.999841    127.91825   -15.763653   0.99760467 
    1500    85.999817    127.91821   -15.763618   0.99757884 
    1600    85.999791    127.91817    -15.76358   0.99755314 
    1700    85.999764    127.91813    -15.76354   0.99752758 
    1800    85.999736    127.91809   -15.763497   0.99750215 
    1900    85.999706    127.91804   -15.763452   0.99747685 
    2000    85.999674      127.918   -15.763405   0.99745169 
    2100     85.99964    127.91795   -15.763355   0.99742667 
    2200    85.999605    127.91789   -15.763302   0.99740178 
    2300    85.999568    127.91784   -15.763247   0.99737703 
    2400    85.999529    127.91778    -15.76319   0.99735241 
    2500    85.999489    127.91772    -15.76313   0.99732793 
    2600    85.999447    127.91766   -15.763068   0.99730358 
    2700    85.999404     127.9176   -15.763003   0.99727936 
    2800    85.999359    127.91753   -15.762936   0.99725528 
    2900    85.999312    127.91746   -15.762867   0.99723134 
    3000    85.999264    127.91739   -15.762795   0.99720753 
    3100    85.999214    127.91731   -15.762721   0.99718386 
    3200    85.999162    127.91724   -15.762644   0.99716032 
    3300    85.999109    127.91716   -15.762564   0.99713692 
    3400    85.999054    127.91708   -15.762483   0.99711365 
    3500    85.998997    127.91699   -15.762399   0.99709052 
    3600    85.998939     127.9169   -15.762312   0.99706752 
    3700    85.998879    127.91682   -15.762223   0.99704466 
    3800    85.998818    127.91672   -15.762131   0.99702193 
    3900    85.998754    127.91663   -15.762037   0.99699934 
    4000     85.99869    127.91653   -15.761941   0.99697688 
    4100    85.998623    127.91643   -15.761842   0.99695456 
    4200    85.998555    127.91633   -15.761741   0.99693237 
    4300    85.998485    127.91623   -15.761637   0.99691032 
    4400    85.998414    127.91612   -15.761531    0.9968884 
    4500    85.998341    127.91601   -15.761422   0.99686662 
    4600    85.998266     127.9159   -15.761311   0.99684497 
    4700     85.99819    127.91579   -15.761198   0.99682346 
    4800    85.998112    127.91567   -15.761082   0.99680209 
    4900    85.998032    127.91556   -15.760964   0.99678085 
    5000    85.997951    127.91544   -15.760843   0.99675974 
    5100    85.997868    127.91531   -15.760719   0.99673877 
    5200    85.997784    127.91519   -15.760594   0.99671793 
    5300    85.997698    127.91506   -15.760466   0.99669723 
    5400     85.99761    127.91493   -15.760335   0.99667667 
    5500     85.99752    127.91479   -15.760202   0.99665624 
    5600    85.997429    127.91466   -15.760066   0.99663594 
    5700    85.997337    127.91452   -15.759928   0.99661579 
    5800    85.997242    127.91438   -15.759788   0.99659576 
    5900    85.997146    127.91424   -15.759645   0.99657587 
    6000    85.997049    127.91409     -15.7595   0.99655612 
    6100    85.996949    127.91394   -15.759352    0.9965365 
    6200    85.996848    127.91379   -15.759202   0.99651702 
    6300    85.996746    127.91364   -15.759049   0.99649767 
    6400    85.996641    127.91349   -15.758894   0.99647846 
    6500    85.996536    127.91333   -15.758737   0.99645938 
    6600    85.996428    127.91317   -15.758577   0.99644044 
    6700    85.996319    127.91301   -15.758415   0.99642163 
    6800    85.996208    127.91284    -15.75825   0.99640296 
    6900    85.996096    127.91267   -15.758082   0.99638442 
    7000    85.995981    127.91251   -15.757913   0.99636602 
    7100    85.995866    127.91233   -15.757741   0.99634776 
    7200    85.995748    127.91216   -15.757566   0.99632963 
    7300    85.995629    127.91198   -15.757389   0.99631163 
    7400    85.995509     127.9118   -15.757209   0.99629377 
    7500    85.995386    127.91162   -15.757027   0.99627605 
    7600    85.995262    127.91144   -15.756843   0.99625846 
    7700    85.995137    127.91125   -15.756656   0.99624101 
    7800    85.995009    127.91106   -15.756467   0.99622369 
    7900     85.99488    127.91087   -15.756275   0.99620651 
    8000     85.99475    127.91067   -15.756081   0.99618946 
    8100    85.994618    127.91048   -15.755884   0.99617255 
    8200    85.994484    127.91028   -15.755685   0.99615577 
    8300    85.994348    127.91008   -15.755484   0.99613913 
    8400    85.994211    127.90987    -15.75528   0.99612262 
    8500    85.994072    127.90967   -15.755073   0.99610625 
    8600    85.993932    127.90946   -15.754864   0.99609002 
    8700     85.99379    127.90925   -15.754653   0.99607392 
    8800    85.993646    127.90903   -15.754439   0.99605796 
    8900    85.993501    127.90882   -15.754223   0.99604213 
    9000    85.993354     127.9086   -15.754004   0.99602644 
    9100    85.993205    127.90838   -15.753783   0.99601088 
    9200    85.993055    127.90815    -15.75356   0.99599546 
    9300    85.992903    127.90793   -15.753334   0.99598017 
    9400    85.992749     127.9077   -15.753105   0.99596502 
    9500    85.992594    127.90747   -15.752874   0.99595001 
    9600    85.992437    127.90723   -15.752693   0.99593389 
    9700    85.992279      127.907   -15.752457   0.99591915 
    9800    85.992118    127.90676   -15.752219   0.99590454 
    9900    85.991957    127.90652   -15.751978   0.99589007 
   10000    85.991793    127.90628   -15.751735   0.99587573 
   10100    85.991628    127.90603    -15.75149   0.99586153 
   10200    85.991461    127.90578   -15.751241   0.99584746 
   10300    85.991293    127.90553   -15.750991   0.99583353 
   10400    85.991123    127.90528   -15.750738   0.99581974 
   10500    85.990951    127.90502   -15.750482   0.99580608 
   10600    85.990777    127.90476   -15.750225   0.99579256 
   10700    85.990602     127.9045   -15.749964   0.99577917 
   10800    85.990426    127.90424   -15.749701   0.99576592 
   10900    85.990247    127.90398   -15.749436    0.9957528 
   11000    85.990067    127.90371   -15.749168   0.99573982 
   11100    85.989886    127.90344   -15.748898   0.99572698 
   11200    85.989702    127.90317   -15.748626   0.99571427 
   11300    85.989517    127.90289    -15.74835   0.99570169 
   11400    85.989331    127.90261   -15.748073   0.99568926 
   11500    85.989143    127.90233   -15.747793   0.99567696 
   11600    85.988953    127.90205    -15.74751   0.99566479 
   11700    85.988761    127.90177   -15.747225   0.99565276 
   11800    85.988568    127.90148   -15.746938   0.99564087 
   11900    85.988373    127.90119   -15.746648   0.99562911 
   12000    85.988177     127.9009   -15.746356   0.99561749 
   12100    85.987978     127.9006   -15.746061     0.995606 
   12200    85.987778     127.9003   -15.745764   0.99559465 
   12300    85.987577        127.9   -15.745464   0.99558343 
   12400    85.987374     127.8997   -15.745162   0.99557235 
   12500    85.987169     127.8994   -15.744857   0.99556141 
   12600    85.986963    127.89909    -15.74455   0.99555061 
   12700    85.986755    127.89878   -15.744241   0.99553993 
   12800    85.986545    127.89847   -15.743929    0.9955294 
   12900    85.986333    127.89815   -15.743614     0.995519 
   13000     85.98612    127.89784   -15.743297   0.99550874 
   13100    85.985906    127.89752    -15.74303   0.99549738 
   13200    85.985689     127.8972   -15.742709   0.99548739 
   13300    85.985471    127.89687   -15.742384   0.99547753 
   13400    85.985251    127.89655   -15.742058   0.99546781 
   13500     85.98503    127.89622   -15.741728   0.99545823 
   13600    85.984807    127.89588   -15.741397   0.99544878 
   13700    85.984582    127.89555   -15.741062   0.99543947 
   13800    85.984356    127.89521   -15.740726    0.9954303 
   13900    85.984128    127.89487   -15.740387   0.99542126 
   14000    85.983898    127.89453   -15.740045   0.99541236 
   14100    85.983667    127.89419   -15.739701   0.99540359 
   14200    85.983434    127.89384   -15.739354   0.99539496 
   14300      85.9832    127.89349   -15.739005   0.99538647 
   14400    85.982963    127.89314   -15.738654   0.99537811 
   14500    85.982725    127.89279     -15.7383   0.99536989 
   14600    85.982486    127.89243   -15.737944    0.9953618 
   14700    85.982244    127.89207   -15.737585   0.99535385 
   14800    85.982001    127.89171   -15.737223   0.99534604 
   14900    85.981757    127.89135    -15.73686   0.99533836 
   15000    85.981511    127.89098   -15.736493   0.99533082 
   15100    85.981263    127.89061   -15.736124   0.99532342 
   15200    85.981013    127.89024   -15.735753   0.99531615 
   15300    85.980762    127.88987   -15.735379   0.99530902 
   15400    85.980509    127.88949   -15.735003   0.99530203 
   15500    85.980254    127.88911   -15.734625   0.99529517 
   15600    85.979998    127.88873   -15.734243   0.99528845 
   15700     85.97974    127.88835    -15.73386   0.99528186 
   15800     85.97948    127.88796   -15.733474   0.99527541 
   15900    85.979219    127.88757   -15.733085    0.9952691 
   16000    85.978956    127.88718   -15.732694   0.99526293 
   16100    85.978692    127.88679     -15.7323   0.99525689 
   16200    85.978425    127.88639   -15.731904   0.99525098 
   16300    85.978158    127.88599   -15.731506   0.99524522 
   16400    85.977888    127.88559   -15.731105   0.99523959 
   16500    85.977617    127.88519   -15.730701   0.99523409 
   16600    85.977344    127.88478   -15.730295   0.99522874 
   16700    85.977069    127.88437   -15.729887   0.99522352 
   16800    85.976793    127.88396   -15.729476   0.99521843 
   16900    85.976515    127.88355   -15.729063   0.99521349 
   17000    85.976235    127.88313   -15.728647   0.99520868 
   17100    85.975954    127.88272   -15.728228     0.995204 
   17200    85.975671     127.8823   -15.727807   0.99519947 
   17300    85.975386    127.88187   -15.727384   0.99519507 
   17400      85.9751    127.88145   -15.726958    0.9951908 
   17500    85.974812    127.88102    -15.72653   0.99518668 
   17600    85.974523    127.88059   -15.726099   0.99518269 
   17700    85.974231    127.88015   -15.725666   0.99517883 
   17800    85.973938    127.87972    -15.72523   0.99517512 
   17900    85.973644    127.87928   -15.724792   0.99517154 
   18000    85.973347    127.87884   -15.724351   0.99516809 
   18100    85.973049     127.8784   -15.723908   0.99516479 
   18200    85.972749    127.87795   -15.723462   0.99516162 
   18300    85.972448     127.8775   -15.723013   0.99515859 
   18400    85.972145    127.87705   -15.722563   0.99515569 
   18500     85.97184     127.8766   -15.722109   0.99515294 
   18600    85.971534    127.87614   -15.721654   0.99515031 
   18700    85.971226    127.87568   -15.721195   0.99514783 
   18800    85.970916    127.87522   -15.720735   0.99514548 
   18900    85.970604    127.87476   -15.720271   0.99514327 
   19000    85.970291    127.87429   -15.719806    0.9951412 
   19100    85.969977    127.87382   -15.719337   0.99513926 
   19200     85.96966    127.87335   -15.718866   0.99513746 
   19300    85.969342    127.87288   -15.718393    0.9951358 
   19400    85.969022    127.87241   -15.717917   0.99513428 
   19500      85.9687    127.87193   -15.717439   0.99513289 
   19600    85.968377    127.87145   -15.716958   0.99513164 
   19700    85.968052    127.87096   -15.716475   0.99513053 
   19800    85.967726    127.87048   -15.715989   0.99512955 
   19900    85.967397    127.86999   -15.715501   0.99512871 
   20000    85.967067     127.8695    -15.71501   0.99512801 
   20100    85.966736      127.869   -15.714517   0.99512745 
   20200    85.966402    127.86851   -15.714021   0.99512702 
   20300    85.966067    127.86801   -15.713523   0.99512673 
   20400    85.965731    127.86751   -15.713022   0.99512658 
   20500    85.965392    127.86701   -15.712518   0.99512656 
   20600    85.965052     127.8665   -15.712013   0.99512669 
   20700     85.96471    127.86599   -15.711504   0.99512695 
   20800    85.964367    127.86548   -15.710993   0.99512734 
   20900    85.964022    127.86497    -15.71048   0.99512788 
   21000    85.963675    127.86445   -15.709964   0.99512855 
   21100    85.963326    127.86393   -15.709446   0.99512936 
   21200    85.962976    127.86341   -15.708925   0.99513031 
   21300    85.962624    127.86289   -15.708401   0.99513139 
   21400     85.96227    127.86236   -15.707875   0.99513261 
   21500    85.961915    127.86183   -15.707347   0.99513397 
   21600    85.961558     127.8613   -15.706815   0.99513547 
   21700    85.961199    127.86077   -15.706282   0.99513711 
   21800    85.960839    127.86023   -15.705746   0.99513888 
   21900    85.960477    127.85969   -15.705207   0.99514079 
   22000    85.960113    127.85915   -15.704666   0.99514284 
   22100    85.959748    127.85861   -15.704122   0.99514502 
   22200     85.95938    127.85806   -15.703576   0.99514735 
   22300    85.959011    127.85752   -15.703027   0.99514981 
   22400    85.958641    127.85696   -15.702476   0.99515241 
   22500    85.958268    127.85641   -15.701922   0.99515514 
   22600    85.957894    127.85585   -15.701366   0.99515802 
   22700    85.957519    127.85529   -15.700807   0.99516103 
   22800    85.957141    127.85473   -15.700246   0.99516418 
   22900    85.956762    127.85417   -15.699682   0.99516747 
   23000    85.956381     127.8536   -15.699116    0.9951709 
   23100    85.955999    127.85303   -15.698547   0.99517446 
   23200    85.955615    127.85246   -15.697975   0.99517816 
   23300    85.955229    127.85189   -15.697401     0.995182 
   23400    85.954841    127.85131   -15.696825   0.99518598 
   23500    85.954452    127.85073   -15.696245    0.9951901 
   23600    85.954061    127.85015   -15.695664   0.99519435 
   23700    85.953668    127.84957    -15.69508   0.99519874 
   23800    85.953274    127.84898   -15.694493   0.99520327 
   23900    85.952877    127.84839   -15.693904   0.99520794 
   24000    85.952479     127.8478   -15.693312   0.99521275 
   24100     85.95208     127.8472   -15.692717   0.99521769 
   24200    85.951679    127.84661    -15.69212   0.99522277 
   24300    85.951276    127.84601   -15.691521   0.99522799 
   24400    85.950871    127.84541   -15.690919   0.99523335 
   24500    85.950464     127.8448   -15.690314   0.99523885 
   24600    85.950056    127.84419   -15.689707   0.99524449 
   24700    85.949646    127.84359   -15.689098   0.99525026 
   24800    85.949235    127.84297   -15.688485   0.99525617 
   24900    85.948821    127.84236   -15.687871   0.99526222 
   25000    85.948406    127.84174   -15.687253   0.99526841 
   25100     85.94799    127.84112   -15.686634   0.99527474 
   25200    85.947571     127.8405   -15.686011   0.99528121 
   25300    85.947151    127.83987   -15.685386   0.99528781 
   25400    85.946729    127.83925   -15.684759   0.99529455 
   25500    85.946306    127.83862   -15.684129   0.99530144 
   25600     85.94588    127.83798   -15.683496   0.99530846 
   25700    85.945453    127.83735   -15.682861   0.99531561 
   25800    85.945024    127.83671   -15.682223   0.99532291 
   25900    85.944594    127.83607   -15.681583   0.99533035 
   26000    85.944162    127.83543    -15.68094   0.99533792 
   26100    85.943728    127.83478   -15.680294   0.99534563 
   26200    85.943292    127.83413   -15.679646   0.99535348 
   26300    85.942855    127.83348   -15.678996   0.99536147 
   26400    85.942416    127.83283   -15.678342    0.9953696 
   26500    85.941975    127.83217   -15.677687   0.99537787 
   26600    85.941532    127.83152   -15.677028   0.99538628 
   26700    85.941088    127.83086   -15.676368   0.99539482 
   26800    85.940642    127.83019   -15.675704   0.99540351 
   26900    85.940194    127.82953   -15.675038   0.99541233 
   27000    85.939745    127.82886    -15.67437   0.99542129 
   27100    85.939293    127.82819   -15.673698   0.99543039 
   27200     85.93884    127.82751   -15.673025   0.99543963 
   27300    85.938386    127.82684   -15.672348   0.99544901 
   27400    85.937929    127.82616   -15.671669   0.99545853 
   27500    85.937471    127.82548   -15.670988   0.99546818 
   27600    85.937011    127.82479   -15.670304   0.99547798 
   27700     85.93655     127.8241   -15.669617   0.99548791 
   27800    85.936086    127.82342   -15.668928   0.99549798 
   27900    85.935621    127.82272   -15.668236    0.9955082 
   28000    85.935154    127.82203   -15.667542   0.99551855 
   28100    85.934686    127.82133   -15.666845   0.99552904 
   28200    85.934215    127.82063   -15.666145   0.99553967 
   28300    85.933743    127.81993   -15.665443   0.99555044 
   28400     85.93327    127.81923   -15.664739   0.99556134 
   28500    85.932794    127.81852   -15.664031   0.99557239 
   28600    85.932317    127.81781   -15.663321   0.99558358 
   28700    85.931838     127.8171   -15.662609    0.9955949 
   28800    85.931357    127.81638   -15.661894   0.99560637 
   28900    85.930875    127.81566   -15.661176   0.99561797 
   29000     85.93039    127.81494   -15.660456   0.99562972 
   29100    85.929904    127.81422   -15.659733    0.9956416 
   29200    85.929417    127.81349   -15.659007   0.99565362 
   29300    85.928927    127.81277   -15.658279   0.99566578 
   29400    85.928436    127.81204   -15.657549   0.99567809 
   29500    85.927943     127.8113   -15.656815   0.99569053 
   29600    85.927448    127.81057   -15.656079   0.99570311 
   29700    85.926952    127.80983   -15.655341   0.99571583 
   29800    85.926453    127.80909     -15.6546   0.99572869 
   29900    85.925953    127.80834   -15.653856   0.99574168 
   30000    85.925452     127.8076    -15.65311   0.99575482 
   30100    85.924948    127.80685   -15.652361    0.9957681 
   30200    85.924443     127.8061   -15.651609   0.99578152 
   30300    85.923936    127.80534   -15.650855   0.99579508 
   30400    85.923427    127.80459   -15.650098   0.99580877 
   30500    85.922916    127.80383   -15.649339   0.99582261 
   30600    85.922404    127.80306   -15.648577   0.99583658 
   30700     85.92189     127.8023   -15.647812    0.9958507 
   30800    85.921374    127.80153   -15.647045   0.99586496 
   30900    85.920857    127.80076   -15.646275   0.99587935 
   31000    85.920337    127.79999   -15.645503   0.99589389 
   31100    85.919816    127.79922   -15.644728   0.99590856 
   31200    85.919294    127.79844    -15.64395   0.99592338 
   31300    85.918769    127.79766    -15.64317   0.99593833 
   31400    85.918243    127.79687   -15.642387   0.99595343 
   31500    85.917714    127.79609   -15.641601   0.99596866 
   31600    85.917184     127.7953   -15.640813   0.99598404 
   31700    85.916653    127.79451   -15.640022   0.99599955 
   31800    85.916119    127.79372   -15.639229   0.99601521 
   31900    85.915584    127.79292   -15.638433     0.996031 
   32000    85.915047    127.79212   -15.637634   0.99604694 
   32100    85.914508    127.79132   -15.636833   0.99606301 
