#Step Temp KinEng PotEng Press 
       0           87    129.40591    -15.76389    1.0096392 
     100    86.999999    129.40591   -15.763889    1.0096113 
     200    86.999997     129.4059   -15.763885    1.0095836 
     300    86.999993     129.4059   -15.763879     1.009556 
     400    86.999987    129.40589   -15.763871    1.0095285 
     500     86.99998    129.40588    -15.76386    1.0095012 
     600    86.999971    129.40586   -15.763847     1.009474 
     700     86.99996    129.40585   -15.763831    1.0094469 
     800    86.999948    129.40583   -15.763812      1.00942 
     900    86.999934    129.40581   -15.763792    1.0093932 
    1000    86.999918    129.40578   -15.763768    1.0093665 
    1100    86.999901    129.40576   -15.763742      1.00934 
    1200    86.999882    129.40573   -15.763714    1.0093136 
    1300    86.999861     129.4057   -15.763683    1.0092874 
    1400    86.999839    129.40567    -15.76365    1.0092613 
    1500    86.999815    129.40563   -15.763614    1.0092353 
    1600    86.999789    129.40559   -15.763576    1.0092095 
    1700    86.999762    129.40555   -15.763536    1.0091838 
    1800    86.999733    129.40551   -15.763493    1.0091582 
    1900    86.999702    129.40546   -15.763447    1.0091328 
    2000     86.99967    129.40542   -15.763399    1.0091075 
    2100    86.999636    129.40536   -15.763348    1.0090823 
    2200      86.9996    129.40531   -15.763295    1.0090573 
    2300    86.999563    129.40526    -15.76324    1.0090324 
    2400    86.999524     129.4052   -15.763182    1.0090077 
    2500    86.999483    129.40514   -15.763121    1.0089831 
    2600    86.999441    129.40508   -15.763059    1.0089586 
    2700    86.999397    129.40501   -15.762993    1.0089343 
    2800    86.999351    129.40494   -15.762925    1.0089101 
    2900    86.999304    129.40487   -15.762855     1.008886 
    3000    86.999255     129.4048   -15.762782    1.0088621 
    3100    86.999205    129.40472   -15.762707    1.0088383 
    3200    86.999152    129.40465   -15.762629    1.0088147 
    3300    86.999098    129.40457   -15.762549    1.0087912 
    3400    86.999043    129.40448   -15.762466    1.0087678 
    3500    86.998986     129.4044   -15.762381    1.0087445 
    3600    86.998927    129.40431   -15.762294    1.0087214 
    3700    86.998866    129.40422   -15.762203    1.0086985 
    3800    86.998804    129.40413   -15.762111    1.0086756 
    3900     86.99874    129.40403   -15.762016    1.0086529 
    4000    86.998674    129.40393   -15.761918    1.0086304 
    4100    86.998607    129.40383   -15.761818     1.008608 
    4200    86.998538    129.40373   -15.761716    1.0085857 
    4300    86.998468    129.40363   -15.761611    1.0085635 
    4400    86.998396    129.40352   -15.761504    1.0085415 
    4500    86.998322    129.40341   -15.761394    1.0085197 
    4600    86.998246     129.4033   -15.761281    1.0084979 
    4700    86.998169    129.40318   -15.761166    1.0084763 
    4800     86.99809    129.40307   -15.761049    1.0084549 
    4900     86.99801    129.40295   -15.760929    1.0084335 
    5000    86.997927    129.40282   -15.760807    1.0084123 
    5100    86.997844     129.4027   -15.760682    1.0083913 
    5200    86.997758    129.40257   -15.760555    1.0083704 
    5300    86.997671    129.40244   -15.760426    1.0083496 
    5400    86.997582    129.40231   -15.760294     1.008329 
    5500    86.997492    129.40218   -15.760159    1.0083085 
    5600    86.997399    129.40204   -15.760022    1.0082881 
    5700    86.997306     129.4019   -15.759882    1.0082679 
    5800     86.99721    129.40176    -15.75974    1.0082478 
    5900    86.997113    129.40161   -15.759596    1.0082278 
    6000    86.997014    129.40147   -15.759449     1.008208 
    6100    86.996914    129.40132   -15.759299    1.0081883 
    6200    86.996812    129.40116   -15.759147    1.0081687 
    6300    86.996708    129.40101   -15.758993    1.0081493 
    6400    86.996602    129.40085   -15.758836    1.0081301 
    6500    86.996495    129.40069   -15.758677    1.0081109 
    6600    86.996386    129.40053   -15.758515    1.0080919 
    6700    86.996276    129.40037   -15.758351    1.0080731 
    6800    86.996164     129.4002   -15.758184    1.0080543 
    6900     86.99605    129.40003   -15.758015    1.0080357 
    7000    86.995935    129.39986   -15.757843    1.0080173 
    7100    86.995818    129.39969   -15.757669     1.007999 
    7200    86.995699    129.39951   -15.757492    1.0079808 
    7300    86.995578    129.39933   -15.757313    1.0079628 
    7400    86.995456    129.39915   -15.757132    1.0079449 
    7500    86.995333    129.39896   -15.756948    1.0079271 
    7600    86.995207    129.39878   -15.756761    1.0079095 
    7700     86.99508    129.39859   -15.756572     1.007892 
    7800    86.994951     129.3984    -15.75638    1.0078746 
    7900    86.994821     129.3982   -15.756186    1.0078574 
    8000    86.994689    129.39801    -15.75599    1.0078403 
    8100    86.994555    129.39781   -15.755791    1.0078233 
    8200     86.99442    129.39761    -15.75559    1.0078065 
    8300    86.994283     129.3974   -15.755386    1.0077899 
    8400    86.994144     129.3972   -15.755179    1.0077733 
    8500    86.994003    129.39699   -15.754971    1.0077569 
    8600    86.993861    129.39678   -15.754759    1.0077407 
    8700    86.993718    129.39656   -15.754545    1.0077245 
    8800    86.993572    129.39635   -15.754329    1.0077086 
    8900    86.993425    129.39613    -15.75411    1.0076927 
    9000    86.993276    129.39591   -15.753889     1.007677 
    9100    86.993126    129.39568   -15.753666    1.0076614 
    9200    86.992974    129.39546   -15.753439     1.007646 
    9300     86.99282    129.39523   -15.753211    1.0076307 
    9400    86.992665      129.395    -15.75298    1.0076155 
    9500    86.992508    129.39476   -15.752798    1.0075993 
    9600    86.992349    129.39453   -15.752562    1.0075844 
    9700    86.992189    129.39429   -15.752324    1.0075696 
    9800    86.992027    129.39405   -15.752083     1.007555 
    9900    86.991863     129.3938   -15.751839    1.0075405 
   10000    86.991697    129.39356   -15.751593    1.0075262 
   10100     86.99153    129.39331   -15.751344     1.007512 
   10200    86.991362    129.39306   -15.751093    1.0074979 
   10300    86.991191     129.3928    -15.75084     1.007484 
   10400    86.991019    129.39255   -15.750584    1.0074702 
   10500    86.990845    129.39229   -15.750326    1.0074565 
   10600     86.99067    129.39203   -15.750065     1.007443 
   10700    86.990493    129.39177   -15.749801    1.0074296 
   10800    86.990314     129.3915   -15.749535    1.0074164 
   10900    86.990134    129.39123   -15.749267    1.0074033 
   11000    86.989952    129.39096   -15.748996    1.0073903 
   11100    86.989768    129.39069   -15.748723    1.0073775 
   11200    86.989582    129.39041   -15.748447    1.0073648 
   11300    86.989395    129.39013   -15.748169    1.0073522 
   11400    86.989206    129.38985   -15.747888    1.0073398 
   11500    86.989016    129.38957   -15.747605    1.0073275 
   11600    86.988824    129.38928   -15.747319    1.0073154 
   11700     86.98863    129.38899   -15.747031    1.0073034 
   11800    86.988435     129.3887    -15.74674    1.0072915 
   11900    86.988237    129.38841   -15.746447    1.0072798 
   12000    86.988039    129.38812   -15.746151    1.0072682 
   12100    86.987838    129.38782   -15.745853    1.0072567 
   12200    86.987636    129.38752   -15.745552    1.0072454 
   12300    86.987432    129.38721   -15.745249    1.0072342 
   12400    86.987227    129.38691   -15.744943    1.0072232 
   12500    86.987019     129.3866   -15.744635    1.0072123 
   12600    86.986811    129.38629   -15.744324    1.0072015 
   12700      86.9866    129.38598   -15.744011    1.0071909 
   12800    86.986388    129.38566   -15.743695    1.0071804 
   12900    86.986174    129.38534   -15.743377      1.00717 
   13000    86.985958    129.38502   -15.743057    1.0071598 
   13100    86.985741     129.3847   -15.742786    1.0071485 
   13200    86.985522    129.38437    -15.74246    1.0071385 
   13300    86.985302    129.38404   -15.742132    1.0071287 
   13400    86.985079    129.38371   -15.741802    1.0071191 
   13500    86.984855    129.38338   -15.741468    1.0071095 
   13600     86.98463    129.38304   -15.741133    1.0071001 
   13700    86.984402    129.38271   -15.740795    1.0070909 
   13800    86.984173    129.38237   -15.740454    1.0070818 
   13900    86.983943    129.38202   -15.740111    1.0070728 
   14000     86.98371    129.38168   -15.739765    1.0070639 
   14100    86.983476    129.38133   -15.739417    1.0070552 
   14200    86.983241    129.38098   -15.739067    1.0070467 
   14300    86.983003    129.38063   -15.738714    1.0070382 
   14400    86.982764    129.38027   -15.738358    1.0070299 
   14500    86.982524    129.37991      -15.738    1.0070218 
   14600    86.982281    129.37955   -15.737639    1.0070138 
   14700    86.982037    129.37919   -15.737276    1.0070059 
   14800    86.981791    129.37882   -15.736911    1.0069981 
   14900    86.981544    129.37845   -15.736543    1.0069905 
   15000    86.981295    129.37808   -15.736172    1.0069831 
   15100    86.981044    129.37771   -15.735799    1.0069758 
   15200    86.980791    129.37734   -15.735423    1.0069686 
   15300    86.980537    129.37696   -15.735045    1.0069615 
   15400    86.980281    129.37658   -15.734665    1.0069546 
   15500    86.980024    129.37619   -15.734281    1.0069478 
   15600    86.979764    129.37581   -15.733896    1.0069412 
   15700    86.979503    129.37542   -15.733508    1.0069347 
   15800    86.979241    129.37503   -15.733117    1.0069283 
   15900    86.978976    129.37464   -15.732724    1.0069221 
   16000     86.97871    129.37424   -15.732328     1.006916 
   16100    86.978443    129.37384    -15.73193    1.0069101 
   16200    86.978173    129.37344   -15.731529    1.0069043 
   16300    86.977902    129.37304   -15.731126    1.0068986 
   16400    86.977629    129.37263    -15.73072    1.0068931 
   16500    86.977355    129.37222   -15.730312    1.0068877 
   16600    86.977079    129.37181   -15.729901    1.0068824 
   16700    86.976801     129.3714   -15.729488    1.0068773 
   16800    86.976522    129.37098   -15.729072    1.0068723 
   16900     86.97624    129.37057   -15.728654    1.0068675 
   17000    86.975957    129.37015   -15.728233    1.0068628 
   17100    86.975673    129.36972    -15.72781    1.0068582 
   17200    86.975387     129.3693   -15.727384    1.0068538 
   17300    86.975099    129.36887   -15.726956    1.0068495 
   17400    86.974809    129.36844   -15.726525    1.0068454 
   17500    86.974517      129.368   -15.726092    1.0068413 
   17600    86.974224    129.36757   -15.725656    1.0068375 
   17700     86.97393    129.36713   -15.725217    1.0068337 
   17800    86.973633    129.36669   -15.724776    1.0068301 
   17900    86.973335    129.36624   -15.724333    1.0068267 
   18000    86.973035     129.3658   -15.723887    1.0068234 
   18100    86.972734    129.36535   -15.723438    1.0068202 
   18200     86.97243     129.3649   -15.722987    1.0068171 
   18300    86.972125    129.36445   -15.722534    1.0068142 
   18400    86.971819    129.36399   -15.722078    1.0068115 
   18500    86.971511    129.36353   -15.721619    1.0068089 
   18600      86.9712    129.36307   -15.721158    1.0068064 
   18700    86.970889    129.36261   -15.720694     1.006804 
   18800    86.970575    129.36214   -15.720228    1.0068018 
   18900     86.97026    129.36167   -15.719759    1.0067997 
   19000    86.969943     129.3612   -15.719288    1.0067978 
   19100    86.969625    129.36073   -15.718814     1.006796 
   19200    86.969305    129.36025   -15.718338    1.0067944 
   19300    86.968983    129.35977   -15.717859    1.0067928 
   19400    86.968659    129.35929   -15.717377    1.0067915 
   19500    86.968334    129.35881   -15.716894    1.0067902 
   19600    86.968007    129.35832   -15.716407    1.0067891 
   19700    86.967678    129.35783   -15.715918    1.0067882 
   19800    86.967347    129.35734   -15.715427    1.0067873 
   19900    86.967015    129.35684   -15.714932    1.0067867 
   20000    86.966681    129.35635   -15.714436    1.0067861 
   20100    86.966346    129.35585   -15.713937    1.0067857 
   20200    86.966008    129.35535   -15.713435    1.0067854 
   20300    86.965669    129.35484   -15.712931    1.0067853 
   20400    86.965329    129.35434   -15.712424    1.0067853 
   20500    86.964986    129.35383   -15.711915    1.0067855 
   20600    86.964642    129.35331   -15.711403    1.0067858 
   20700    86.964296     129.3528   -15.710888    1.0067862 
   20800    86.963949    129.35228   -15.710371    1.0067868 
   20900    86.963599    129.35176   -15.709852    1.0067875 
   21000    86.963249    129.35124    -15.70933    1.0067883 
   21100    86.962896    129.35072   -15.708805    1.0067893 
   21200    86.962541    129.35019   -15.708278    1.0067904 
   21300    86.962185    129.34966   -15.707748    1.0067917 
   21400    86.961827    129.34913   -15.707216    1.0067931 
   21500    86.961468    129.34859   -15.706681    1.0067946 
   21600    86.961107    129.34806   -15.706144    1.0067963 
   21700    86.960744    129.34752   -15.705604    1.0067981 
   21800    86.960379    129.34697   -15.705062    1.0068001 
   21900    86.960013    129.34643   -15.704517    1.0068022 
   22000    86.959644    129.34588   -15.703969    1.0068044 
   22100    86.959275    129.34533   -15.703419    1.0068068 
   22200    86.958903    129.34478   -15.702866    1.0068093 
   22300     86.95853    129.34422   -15.702311     1.006812 
   22400    86.958155    129.34367   -15.701753    1.0068148 
   22500    86.957778     129.3431   -15.701193    1.0068177 
   22600      86.9574    129.34254    -15.70063    1.0068208 
   22700    86.957019    129.34198   -15.700064     1.006824 
   22800    86.956637    129.34141   -15.699496    1.0068274 
   22900    86.956254    129.34084   -15.698926    1.0068309 
   23000    86.955868    129.34026   -15.698353    1.0068345 
   23100    86.955481    129.33969   -15.697777    1.0068383 
   23200    86.955093    129.33911   -15.697199    1.0068422 
   23300    86.954702    129.33853   -15.696618    1.0068462 
   23400     86.95431    129.33795   -15.696034    1.0068504 
   23500    86.953916    129.33736   -15.695448    1.0068548 
   23600     86.95352    129.33677    -15.69486    1.0068592 
   23700    86.953123    129.33618   -15.694268    1.0068638 
   23800    86.952724    129.33559   -15.693675    1.0068686 
   23900    86.952323    129.33499   -15.693078    1.0068735 
   24000     86.95192    129.33439    -15.69248    1.0068785 
   24100    86.951516    129.33379   -15.691878    1.0068837 
   24200     86.95111    129.33319   -15.691274     1.006889 
   24300    86.950702    129.33258   -15.690667    1.0068944 
   24400    86.950292    129.33197   -15.690058       1.0069 
   24500    86.949881    129.33136   -15.689446    1.0069058 
   24600    86.949468    129.33074   -15.688832    1.0069116 
   24700    86.949053    129.33013   -15.688215    1.0069176 
   24800    86.948637    129.32951   -15.687596    1.0069238 
   24900    86.948218    129.32889   -15.686974    1.0069301 
   25000    86.947798    129.32826   -15.686349    1.0069365 
   25100    86.947377    129.32763   -15.685722    1.0069431 
   25200    86.946953      129.327   -15.685092    1.0069498 
   25300    86.946528    129.32637   -15.684459    1.0069566 
   25400    86.946101    129.32574   -15.683824    1.0069636 
   25500    86.945672     129.3251   -15.683187    1.0069708 
   25600    86.945242    129.32446   -15.682546     1.006978 
   25700     86.94481    129.32382   -15.681904    1.0069855 
   25800    86.944376    129.32317   -15.681258     1.006993 
   25900     86.94394    129.32252    -15.68061    1.0070007 
   26000    86.943503    129.32187    -15.67996    1.0070085 
   26100    86.943064    129.32122   -15.679306    1.0070165 
   26200    86.942623    129.32056   -15.678651    1.0070246 
   26300     86.94218     129.3199   -15.677992    1.0070329 
   26400    86.941736    129.31924   -15.677331    1.0070413 
   26500     86.94129    129.31858   -15.676668    1.0070498 
   26600    86.940842    129.31791   -15.676001    1.0070585 
   26700    86.940392    129.31724   -15.675333    1.0070673 
   26800    86.939941    129.31657   -15.674661    1.0070762 
   26900    86.939488     129.3159   -15.673987    1.0070853 
   27000    86.939033    129.31522   -15.673311    1.0070946 
   27100    86.938576    129.31454   -15.672631     1.007104 
   27200    86.938118    129.31386    -15.67195    1.0071135 
   27300    86.937657    129.31318   -15.671265    1.0071231 
   27400    86.937196    129.31249   -15.670578    1.0071329 
   27500    86.936732     129.3118   -15.669888    1.0071429 
   27600    86.936266    129.31111   -15.669196     1.007153 
   27700    86.935799    129.31041   -15.668501    1.0071632 
   27800     86.93533    129.30972   -15.667804    1.0071735 
   27900     86.93486    129.30902   -15.667104     1.007184 
   28000    86.934387    129.30831   -15.666401    1.0071947 
   28100    86.933913    129.30761   -15.665695    1.0072055 
   28200    86.933437     129.3069   -15.664987    1.0072164 
   28300    86.932959    129.30619   -15.664277    1.0072275 
   28400     86.93248    129.30548   -15.663564    1.0072387 
   28500    86.931998    129.30476   -15.662848      1.00725 
   28600    86.931515    129.30404   -15.662129    1.0072615 
   28700    86.931031    129.30332   -15.661408    1.0072731 
   28800    86.930544     129.3026   -15.660684    1.0072849 
   28900    86.930056    129.30187   -15.659958    1.0072968 
   29000    86.929566    129.30114   -15.659229    1.0073089 
   29100    86.929074    129.30041   -15.658497    1.0073211 
   29200     86.92858    129.29967   -15.657763    1.0073334 
   29300    86.928085    129.29894   -15.657026    1.0073459 
   29400    86.927587     129.2982   -15.656287    1.0073585 
   29500    86.927089    129.29746   -15.655545    1.0073713 
   29600    86.926588    129.29671     -15.6548    1.0073842 
   29700    86.926085    129.29596   -15.654052    1.0073972 
   29800    86.925581    129.29521   -15.653302    1.0074104 
   29900    86.925075    129.29446    -15.65255    1.0074237 
   30000    86.924567    129.29371   -15.651794    1.0074372 
   30100    86.924058    129.29295   -15.651036    1.0074508 
   30200    86.923546    129.29219   -15.650276    1.0074646 
   30300    86.923033    129.29142   -15.649512    1.0074784 
   30400    86.922518    129.29066   -15.648746    1.0074925 
   30500    86.922001    129.28989   -15.647978    1.0075067 
   30600    86.921483    129.28912   -15.647207     1.007521 
   30700    86.920963    129.28834   -15.646433    1.0075354 
   30800     86.92044    129.28757   -15.645656      1.00755 
   30900    86.919917    129.28679   -15.644877    1.0075648 
   31000    86.919391    129.28601   -15.644095    1.0075796 
   31100    86.918864    129.28522   -15.643311    1.0075947 
   31200    86.918334    129.28444   -15.642523    1.0076098 
   31300    86.917803    129.28365   -15.641734    1.0076251 
   31400    86.917271    129.28285   -15.640941    1.0076406 
   31500    86.916736    129.28206   -15.640146    1.0076562 
   31600      86.9162    129.28126   -15.639348    1.0076719 
   31700    86.915661    129.28046   -15.638548    1.0076878 
   31800    86.915122    129.27966   -15.637745    1.0077038 
   31900     86.91458    129.27885   -15.636939      1.00772 
   32000    86.914036    129.27804    -15.63613    1.0077363 
   32100    86.913491    129.27723   -15.635319    1.0077527 
