#Step Temp KinEng PotEng Press 
       0           91     135.3556    -15.76389     1.056274 
     100    90.999999     135.3556   -15.763889    1.0562455 
     200    90.999997     135.3556   -15.763885    1.0562171 
     300    90.999993    135.35559   -15.763879    1.0561889 
     400    90.999987    135.35558    -15.76387    1.0561608 
     500    90.999979    135.35557   -15.763859    1.0561329 
     600    90.999969    135.35556   -15.763845    1.0561051 
     700    90.999958    135.35554   -15.763828    1.0560774 
     800    90.999945    135.35552   -15.763809    1.0560499 
     900    90.999931     135.3555   -15.763787    1.0560225 
    1000    90.999914    135.35548   -15.763763    1.0559953 
    1100    90.999896    135.35545   -15.763736    1.0559682 
    1200    90.999876    135.35542   -15.763706    1.0559413 
    1300    90.999855    135.35539   -15.763674    1.0559145 
    1400    90.999831    135.35535   -15.763639    1.0558878 
    1500    90.999806    135.35532   -15.763602    1.0558613 
    1600    90.999779    135.35528   -15.763562    1.0558349 
    1700    90.999751    135.35523   -15.763519    1.0558087 
    1800     90.99972    135.35519   -15.763474    1.0557826 
    1900    90.999688    135.35514   -15.763426    1.0557566 
    2000    90.999655    135.35509   -15.763376    1.0557308 
    2100    90.999619    135.35504   -15.763323    1.0557052 
    2200    90.999582    135.35498   -15.763268    1.0556797 
    2300    90.999543    135.35492    -15.76321    1.0556543 
    2400    90.999502    135.35486   -15.763149    1.0556291 
    2500    90.999459     135.3548   -15.763086     1.055604 
    2600    90.999415    135.35473    -15.76302     1.055579 
    2700    90.999369    135.35467   -15.762952    1.0555542 
    2800    90.999321    135.35459   -15.762881    1.0555296 
    2900    90.999272    135.35452   -15.762807    1.0555051 
    3000    90.999221    135.35444   -15.762731    1.0554807 
    3100    90.999168    135.35437   -15.762652    1.0554564 
    3200    90.999113    135.35428   -15.762571    1.0554324 
    3300    90.999057     135.3542   -15.762487    1.0554084 
    3400    90.998999    135.35411   -15.762401    1.0553846 
    3500    90.998939    135.35403   -15.762312     1.055361 
    3600    90.998877    135.35393    -15.76222    1.0553374 
    3700    90.998814    135.35384   -15.762126    1.0553141 
    3800    90.998749    135.35374   -15.762029    1.0552908 
    3900    90.998682    135.35364   -15.761929    1.0552678 
    4000    90.998613    135.35354   -15.761827    1.0552448 
    4100    90.998543    135.35344   -15.761723     1.055222 
    4200    90.998471    135.35333   -15.761616    1.0551993 
    4300    90.998397    135.35322   -15.761506    1.0551768 
    4400    90.998322    135.35311   -15.761394    1.0551545 
    4500    90.998244    135.35299   -15.761279    1.0551322 
    4600    90.998165    135.35287   -15.761161    1.0551101 
    4700    90.998085    135.35275   -15.761041    1.0550882 
    4800    90.998002    135.35263   -15.760918    1.0550664 
    4900    90.997918    135.35251   -15.760793    1.0550447 
    5000    90.997832    135.35238   -15.760665    1.0550232 
    5100    90.997744    135.35225   -15.760535    1.0550019 
    5200    90.997655    135.35212   -15.760402    1.0549806 
    5300    90.997564    135.35198   -15.760266    1.0549596 
    5400    90.997471    135.35184   -15.760128    1.0549386 
    5500    90.997376     135.3517   -15.759987    1.0549178 
    5600     90.99728    135.35156   -15.759844    1.0548972 
    5700    90.997182    135.35141   -15.759698    1.0548766 
    5800    90.997082    135.35126   -15.759549    1.0548563 
    5900     90.99698    135.35111   -15.759398     1.054836 
    6000    90.996877    135.35096   -15.759244     1.054816 
    6100    90.996772     135.3508   -15.759088     1.054796 
    6200    90.996665    135.35064   -15.758929    1.0547762 
    6300    90.996556    135.35048   -15.758768    1.0547566 
    6400    90.996446    135.35032   -15.758604    1.0547371 
    6500    90.996334    135.35015   -15.758437    1.0547177 
    6600     90.99622    135.34998   -15.758268    1.0546985 
    6700    90.996104    135.34981   -15.758096    1.0546794 
    6800    90.995987    135.34963   -15.757921    1.0546605 
    6900    90.995868    135.34946   -15.757744    1.0546417 
    7000    90.995747    135.34928   -15.757565     1.054623 
    7100    90.995625     135.3491   -15.757383    1.0546045 
    7200    90.995501    135.34891   -15.757198    1.0545861 
    7300    90.995375    135.34872    -15.75701    1.0545679 
    7400    90.995247    135.34853    -15.75682    1.0545498 
    7500    90.995118    135.34834   -15.756628    1.0545319 
    7600    90.994986    135.34815   -15.756433    1.0545141 
    7700    90.994853    135.34795   -15.756235    1.0544965 
    7800    90.994719    135.34775   -15.756035     1.054479 
    7900    90.994582    135.34755   -15.755832    1.0544616 
    8000    90.994444    135.34734   -15.755626    1.0544444 
    8100    90.994304    135.34713   -15.755418    1.0544273 
    8200    90.994163    135.34692   -15.755207    1.0544104 
    8300    90.994019    135.34671   -15.754994    1.0543936 
    8400    90.993874    135.34649   -15.754778    1.0543769 
    8500    90.993727    135.34627    -15.75456    1.0543604 
    8600    90.993579    135.34605   -15.754339    1.0543441 
    8700    90.993428    135.34583   -15.754115    1.0543279 
    8800    90.993276     135.3456   -15.753889    1.0543118 
    8900    90.993122    135.34537    -15.75366    1.0542959 
    9000    90.992967    135.34514   -15.753429    1.0542801 
    9100    90.992809    135.34491   -15.753195    1.0542644 
    9200     90.99265    135.34467   -15.752958    1.0542489 
    9300    90.992489    135.34443   -15.752771    1.0542323 
    9400    90.992327    135.34419   -15.752529    1.0542171 
    9500    90.992163    135.34395   -15.752285    1.0542021 
    9600    90.991997     135.3437   -15.752038    1.0541871 
    9700    90.991829    135.34345   -15.751788    1.0541724 
    9800    90.991659     135.3432   -15.751536    1.0541577 
    9900    90.991488    135.34294   -15.751281    1.0541432 
   10000    90.991315    135.34269   -15.751024    1.0541289 
   10100     90.99114    135.34243   -15.750764    1.0541147 
   10200    90.990964    135.34216   -15.750501    1.0541006 
   10300    90.990785     135.3419   -15.750236    1.0540867 
   10400    90.990605    135.34163   -15.749968    1.0540729 
   10500    90.990423    135.34136   -15.749698    1.0540593 
   10600     90.99024    135.34109   -15.749425    1.0540458 
   10700    90.990055    135.34081    -15.74915    1.0540324 
   10800    90.989868    135.34053   -15.748871    1.0540192 
   10900    90.989679    135.34025   -15.748591    1.0540062 
   11000    90.989488    135.33997   -15.748307    1.0539933 
   11100    90.989296    135.33968   -15.748021    1.0539805 
   11200    90.989102    135.33939   -15.747733    1.0539679 
   11300    90.988906     135.3391   -15.747442    1.0539554 
   11400    90.988709    135.33881   -15.747148    1.0539431 
   11500     90.98851    135.33851   -15.746851    1.0539309 
   11600    90.988309    135.33821   -15.746552    1.0539188 
   11700    90.988106    135.33791   -15.746251    1.0539069 
   11800    90.987901    135.33761   -15.745947    1.0538951 
   11900    90.987695     135.3373    -15.74564    1.0538835 
   12000    90.987487    135.33699    -15.74533     1.053872 
   12100    90.987277    135.33668   -15.745018    1.0538607 
   12200    90.987066    135.33636   -15.744704    1.0538495 
   12300    90.986853    135.33605   -15.744387    1.0538385 
   12400    90.986637    135.33573   -15.744067    1.0538276 
   12500    90.986421    135.33541   -15.743744    1.0538168 
   12600    90.986202    135.33508   -15.743419    1.0538062 
   12700    90.985982    135.33475   -15.743092    1.0537957 
   12800     90.98576    135.33442   -15.742814    1.0537842 
   12900    90.985536    135.33409   -15.742481     1.053774 
   13000    90.985311    135.33375   -15.742145     1.053764 
   13100    90.985083    135.33342   -15.741807    1.0537541 
   13200    90.984854    135.33308   -15.741467    1.0537443 
   13300    90.984623    135.33273   -15.741123    1.0537347 
   13400    90.984391    135.33239   -15.740777    1.0537252 
   13500    90.984156    135.33204   -15.740429    1.0537159 
   13600     90.98392    135.33169   -15.740078    1.0537068 
   13700    90.983683    135.33133   -15.739724    1.0536977 
   13800    90.983443    135.33098   -15.739368    1.0536888 
   13900    90.983202    135.33062   -15.739009    1.0536801 
   14000    90.982959    135.33026   -15.738647    1.0536715 
   14100    90.982714    135.32989   -15.738283    1.0536631 
   14200    90.982467    135.32952   -15.737916    1.0536547 
   14300    90.982219    135.32916   -15.737546    1.0536466 
   14400    90.981968    135.32878   -15.737174    1.0536386 
   14500    90.981717    135.32841     -15.7368    1.0536307 
   14600    90.981463    135.32803   -15.736422     1.053623 
   14700    90.981207    135.32765   -15.736042    1.0536154 
   14800     90.98095    135.32727    -15.73566    1.0536079 
   14900    90.980691    135.32688   -15.735275    1.0536006 
   15000    90.980431     135.3265   -15.734887    1.0535935 
   15100    90.980168    135.32611   -15.734496    1.0535865 
   15200    90.979904    135.32571   -15.734103    1.0535796 
   15300    90.979638    135.32532   -15.733708    1.0535729 
   15400     90.97937    135.32492   -15.733309    1.0535663 
   15500    90.979101    135.32452   -15.732908    1.0535599 
   15600    90.978829    135.32411   -15.732505    1.0535536 
   15700    90.978556    135.32371   -15.732099    1.0535475 
   15800    90.978281     135.3233    -15.73169    1.0535415 
   15900    90.978005    135.32289   -15.731279    1.0535356 
   16000    90.977726    135.32247   -15.730864    1.0535299 
   16100    90.977446    135.32206   -15.730448    1.0535243 
   16200    90.977164    135.32164   -15.730028    1.0535189 
   16300    90.976881    135.32122   -15.729606    1.0535136 
   16400    90.976595    135.32079   -15.729182    1.0535085 
   16500    90.976308    135.32036   -15.728755    1.0535035 
   16600    90.976019    135.31993   -15.728325    1.0534987 
   16700    90.975728     135.3195   -15.727892     1.053494 
   16800    90.975436    135.31907   -15.727457    1.0534894 
   16900    90.975141    135.31863   -15.727019     1.053485 
   17000    90.974845    135.31819   -15.726579    1.0534808 
   17100    90.974547    135.31774   -15.726136    1.0534767 
   17200    90.974248     135.3173    -15.72569    1.0534727 
   17300    90.973946    135.31685   -15.725242    1.0534689 
   17400    90.973643     135.3164   -15.724791    1.0534652 
   17500    90.973338    135.31595   -15.724338    1.0534616 
   17600    90.973032    135.31549   -15.723881    1.0534583 
   17700    90.972723    135.31503   -15.723422     1.053455 
   17800    90.972413    135.31457   -15.722961    1.0534519 
   17900    90.972101    135.31411   -15.722497     1.053449 
   18000    90.971787    135.31364    -15.72203    1.0534461 
   18100    90.971471    135.31317   -15.721561    1.0534435 
   18200    90.971154     135.3127   -15.721088     1.053441 
   18300    90.970835    135.31222   -15.720614    1.0534386 
   18400    90.970514    135.31174   -15.720136    1.0534363 
   18500    90.970191    135.31126   -15.719656    1.0534343 
   18600    90.969866    135.31078   -15.719174    1.0534323 
   18700     90.96954     135.3103   -15.718688    1.0534305 
   18800    90.969212    135.30981     -15.7182    1.0534289 
   18900    90.968882    135.30932    -15.71771    1.0534274 
   19000    90.968551    135.30883   -15.717216     1.053426 
   19100    90.968217    135.30833    -15.71672    1.0534248 
   19200    90.967882    135.30783   -15.716222    1.0534237 
   19300    90.967545    135.30733   -15.715721    1.0534228 
   19400    90.967206    135.30683   -15.715217     1.053422 
   19500    90.966866    135.30632    -15.71471    1.0534214 
   19600    90.966523    135.30581   -15.714201    1.0534209 
   19700    90.966179     135.3053   -15.713689    1.0534206 
   19800    90.965833    135.30478   -15.713174    1.0534204 
   19900    90.965486    135.30427   -15.712657    1.0534203 
   20000    90.965136    135.30375   -15.712137    1.0534204 
   20100    90.964785    135.30322   -15.711615    1.0534207 
   20200    90.964432     135.3027    -15.71109     1.053421 
   20300    90.964077    135.30217   -15.710562    1.0534216 
   20400     90.96372    135.30164   -15.710031    1.0534222 
   20500    90.963362    135.30111   -15.709498    1.0534231 
   20600    90.963001    135.30057   -15.708962     1.053424 
   20700    90.962639    135.30003   -15.708424    1.0534252 
   20800    90.962275    135.29949   -15.707882    1.0534264 
   20900     90.96191    135.29895   -15.707339    1.0534278 
   21000    90.961542     135.2984   -15.706792    1.0534294 
   21100    90.961173    135.29785   -15.706243    1.0534311 
   21200    90.960802     135.2973   -15.705691    1.0534329 
   21300    90.960429    135.29675   -15.705136    1.0534349 
   21400    90.960055    135.29619   -15.704579     1.053437 
   21500    90.959678    135.29563   -15.704019    1.0534393 
   21600      90.9593    135.29507   -15.703457    1.0534417 
   21700     90.95892     135.2945   -15.702891    1.0534443 
   21800    90.958538    135.29393   -15.702323     1.053447 
   21900    90.958154    135.29336   -15.701753    1.0534499 
   22000    90.957769    135.29279   -15.701179    1.0534529 
   22100    90.957382    135.29221   -15.700603    1.0534561 
   22200    90.956993    135.29163   -15.700025    1.0534594 
   22300    90.956602    135.29105   -15.699443    1.0534628 
   22400    90.956209    135.29047   -15.698859    1.0534664 
   22500    90.955815    135.28988   -15.698273    1.0534702 
   22600    90.955418    135.28929   -15.697683    1.0534741 
   22700     90.95502     135.2887   -15.697091    1.0534781 
   22800    90.954621    135.28811   -15.696496    1.0534823 
   22900    90.954219    135.28751   -15.695899    1.0534866 
   23000    90.953815    135.28691   -15.695299    1.0534911 
   23100     90.95341     135.2863   -15.694696    1.0534957 
   23200    90.953003     135.2857    -15.69409    1.0535005 
   23300    90.952594    135.28509   -15.693482    1.0535054 
   23400    90.952183    135.28448   -15.692871    1.0535104 
   23500    90.951771    135.28387   -15.692257    1.0535156 
   23600    90.951356    135.28325   -15.691641     1.053521 
   23700     90.95094    135.28263   -15.691022    1.0535265 
   23800    90.950522    135.28201     -15.6904    1.0535321 
   23900    90.950102    135.28138   -15.689776    1.0535379 
   24000    90.949681    135.28076   -15.689149    1.0535439 
   24100    90.949257    135.28013   -15.688519    1.0535499 
   24200    90.948832    135.27949   -15.687886    1.0535562 
   24300    90.948405    135.27886   -15.687251    1.0535626 
   24400    90.947976    135.27822   -15.686613    1.0535691 
   24500    90.947545    135.27758   -15.685972    1.0535758 
   24600    90.947112    135.27694   -15.685329    1.0535826 
   24700    90.946678    135.27629   -15.684683    1.0535895 
   24800    90.946242    135.27564   -15.684034    1.0535967 
   24900    90.945804    135.27499   -15.683382    1.0536039 
   25000    90.945364    135.27434   -15.682728    1.0536113 
   25100    90.944922    135.27368   -15.682071    1.0536189 
   25200    90.944479    135.27302   -15.681411    1.0536266 
   25300    90.944033    135.27236   -15.680749    1.0536344 
   25400    90.943586    135.27169   -15.680084    1.0536424 
   25500    90.943137    135.27102   -15.679416    1.0536506 
   25600    90.942686    135.27035   -15.678745    1.0536589 
   25700    90.942234    135.26968   -15.678072    1.0536673 
   25800    90.941779      135.269   -15.677396    1.0536759 
   25900    90.941323    135.26833   -15.676717    1.0536846 
   26000    90.940865    135.26764   -15.676036    1.0536935 
   26100    90.940405    135.26696   -15.675351    1.0537025 
   26200    90.939943    135.26627   -15.674664    1.0537117 
   26300    90.939479    135.26558   -15.673975     1.053721 
   26400    90.939014    135.26489   -15.673282    1.0537305 
   26500    90.938546     135.2642   -15.672587    1.0537401 
   26600    90.938077     135.2635   -15.671889    1.0537498 
   26700    90.937606     135.2628   -15.671189    1.0537598 
   26800    90.937133    135.26209   -15.670485    1.0537698 
   26900    90.936659    135.26139   -15.669779      1.05378 
   27000    90.936182    135.26068   -15.669071    1.0537904 
   27100    90.935704    135.25997   -15.668359    1.0538009 
   27200    90.935223    135.25925   -15.667645    1.0538115 
   27300    90.934741    135.25854   -15.666928    1.0538223 
   27400    90.934257    135.25782   -15.666208    1.0538333 
   27500    90.933772    135.25709   -15.665485    1.0538443 
   27600    90.933284    135.25637    -15.66476    1.0538556 
   27700    90.932795    135.25564   -15.664032     1.053867 
   27800    90.932303    135.25491   -15.663301    1.0538785 
   27900     90.93181    135.25418   -15.662568    1.0538902 
   28000    90.931315    135.25344   -15.661831     1.053902 
   28100    90.930818     135.2527   -15.661092     1.053914 
   28200     90.93032    135.25196   -15.660351    1.0539261 
   28300    90.929819    135.25121   -15.659606    1.0539384 
   28400    90.929317    135.25047   -15.658859    1.0539508 
   28500    90.928812    135.24972   -15.658109    1.0539634 
   28600    90.928306    135.24896   -15.657356    1.0539761 
   28700    90.927798    135.24821     -15.6566     1.053989 
   28800    90.927288    135.24745   -15.655842     1.054002 
   28900    90.926777    135.24669   -15.655081    1.0540151 
   29000    90.926263    135.24593   -15.654317    1.0540284 
   29100    90.925748    135.24516    -15.65355    1.0540419 
   29200     90.92523    135.24439   -15.652781    1.0540555 
   29300    90.924711    135.24362   -15.652009    1.0540693 
   29400     90.92419    135.24284   -15.651234    1.0540832 
   29500    90.923667    135.24206   -15.650456    1.0540972 
   29600    90.923143    135.24128   -15.649675    1.0541114 
   29700    90.922616     135.2405   -15.648892    1.0541258 
   29800    90.922088    135.23971   -15.648106    1.0541403 
   29900    90.921557    135.23893   -15.647317    1.0541549 
   30000    90.921025    135.23813   -15.646526    1.0541697 
   30100    90.920491    135.23734   -15.645731    1.0541846 
   30200    90.919955    135.23654   -15.644934    1.0541997 
   30300    90.919417    135.23574   -15.644134     1.054215 
   30400    90.918878    135.23494   -15.643331    1.0542304 
   30500    90.918336    135.23413   -15.642526    1.0542459 
   30600    90.917793    135.23333   -15.641718    1.0542616 
   30700    90.917247    135.23252   -15.640906    1.0542774 
   30800      90.9167     135.2317   -15.640093    1.0542934 
   30900    90.916151    135.23088   -15.639276    1.0543095 
   31000      90.9156    135.23007   -15.638456    1.0543258 
   31100    90.915047    135.22924   -15.637634    1.0543422 
   31200    90.914493    135.22842   -15.636809    1.0543588 
   31300    90.913936    135.22759   -15.635981    1.0543755 
   31400    90.913378    135.22676   -15.635151    1.0543924 
   31500    90.912817    135.22593   -15.634317    1.0544094 
   31600    90.912255    135.22509   -15.633481    1.0544266 
   31700    90.911691    135.22425   -15.632642    1.0544439 
   31800    90.911125    135.22341     -15.6318    1.0544614 
   31900    90.910557    135.22256   -15.630955     1.054479 
   32000    90.909987    135.22172   -15.630108    1.0544968 
   32100    90.909416    135.22087   -15.629257    1.0545147 
