#Step Temp KinEng PotEng Press 
       0           93    138.33045    -15.76389    1.0795914 
     100    92.999999    138.33045   -15.763889    1.0795626 
     200    92.999997    138.33045   -15.763885    1.0795339 
     300    92.999992    138.33044   -15.763879    1.0795054 
     400    92.999986    138.33043    -15.76387     1.079477 
     500    92.999978    138.33042   -15.763858    1.0794488 
     600    92.999969    138.33041   -15.763844    1.0794207 
     700    92.999957    138.33039   -15.763827    1.0793927 
     800    92.999944    138.33037   -15.763807    1.0793649 
     900    92.999929    138.33035   -15.763785    1.0793372 
    1000    92.999912    138.33032    -15.76376    1.0793097 
    1100    92.999894    138.33029   -15.763732    1.0792824 
    1200    92.999873    138.33026   -15.763702    1.0792551 
    1300    92.999851    138.33023   -15.763669    1.0792281 
    1400    92.999828     138.3302   -15.763633    1.0792011 
    1500    92.999802    138.33016   -15.763595    1.0791744 
    1600    92.999774    138.33012   -15.763555    1.0791477 
    1700    92.999745    138.33007   -15.763511    1.0791212 
    1800    92.999714    138.33003   -15.763465    1.0790949 
    1900    92.999681    138.32998   -15.763416    1.0790687 
    2000    92.999647    138.32993   -15.763365    1.0790426 
    2100    92.999611    138.32987   -15.763311    1.0790167 
    2200    92.999572    138.32982   -15.763254     1.078991 
    2300    92.999533    138.32976   -15.763195    1.0789653 
    2400    92.999491    138.32969   -15.763133    1.0789399 
    2500    92.999448    138.32963   -15.763068    1.0789145 
    2600    92.999402    138.32956   -15.763001    1.0788894 
    2700    92.999355    138.32949   -15.762931    1.0788643 
    2800    92.999307    138.32942   -15.762859    1.0788395 
    2900    92.999256    138.32935   -15.762783    1.0788147 
    3000    92.999204    138.32927   -15.762706    1.0787901 
    3100     92.99915    138.32919   -15.762625    1.0787657 
    3200    92.999094     138.3291   -15.762542    1.0787414 
    3300    92.999036    138.32902   -15.762456    1.0787172 
    3400    92.998977    138.32893   -15.762368    1.0786932 
    3500    92.998915    138.32884   -15.762277    1.0786693 
    3600    92.998852    138.32875   -15.762183    1.0786456 
    3700    92.998788    138.32865   -15.762087    1.0786221 
    3800    92.998721    138.32855   -15.761988    1.0785986 
    3900    92.998653    138.32845   -15.761886    1.0785754 
    4000    92.998583    138.32834   -15.761782    1.0785522 
    4100    92.998511    138.32824   -15.761675    1.0785292 
    4200    92.998437    138.32813   -15.761566    1.0785064 
    4300    92.998362    138.32802   -15.761453    1.0784837 
    4400    92.998285     138.3279   -15.761339    1.0784612 
    4500    92.998206    138.32778   -15.761221    1.0784388 
    4600    92.998125    138.32766   -15.761101    1.0784165 
    4700    92.998042    138.32754   -15.760978    1.0783944 
    4800    92.997958    138.32741   -15.760853    1.0783724 
    4900    92.997872    138.32729   -15.760725    1.0783506 
    5000    92.997784    138.32716   -15.760594    1.0783289 
    5100    92.997695    138.32702   -15.760461    1.0783074 
    5200    92.997603    138.32689   -15.760325     1.078286 
    5300     92.99751    138.32675   -15.760186    1.0782648 
    5400    92.997415    138.32661   -15.760045    1.0782437 
    5500    92.997318    138.32646   -15.759901    1.0782228 
    5600     92.99722    138.32632   -15.759755     1.078202 
    5700    92.997119    138.32617   -15.759605    1.0781813 
    5800    92.997017    138.32602   -15.759454    1.0781608 
    5900    92.996914    138.32586   -15.759299    1.0781405 
    6000    92.996808     138.3257   -15.759142    1.0781203 
    6100    92.996701    138.32554   -15.758982    1.0781002 
    6200    92.996591    138.32538    -15.75882    1.0780803 
    6300     92.99648    138.32522   -15.758655    1.0780605 
    6400    92.996368    138.32505   -15.758487    1.0780409 
    6500    92.996253    138.32488   -15.758317    1.0780214 
    6600    92.996137    138.32471   -15.758144    1.0780021 
    6700    92.996019    138.32453   -15.757968    1.0779829 
    6800    92.995899    138.32435    -15.75779    1.0779639 
    6900    92.995777    138.32417   -15.757609     1.077945 
    7000    92.995654    138.32399   -15.757425    1.0779262 
    7100    92.995529     138.3238   -15.757239    1.0779076 
    7200    92.995402    138.32361    -15.75705    1.0778892 
    7300    92.995273    138.32342   -15.756859    1.0778709 
    7400    92.995142    138.32323   -15.756665    1.0778527 
    7500     92.99501    138.32303   -15.756468    1.0778347 
    7600    92.994876    138.32283   -15.756269    1.0778168 
    7700     92.99474    138.32263   -15.756066    1.0777991 
    7800    92.994603    138.32242   -15.755862    1.0777815 
    7900    92.994463    138.32222   -15.755654    1.0777641 
    8000    92.994322    138.32201   -15.755444    1.0777468 
    8100    92.994179    138.32179   -15.755232    1.0777297 
    8200    92.994034    138.32158   -15.755016    1.0777127 
    8300    92.993888    138.32136   -15.754798    1.0776959 
    8400    92.993739    138.32114   -15.754578    1.0776792 
    8500    92.993589    138.32092   -15.754354    1.0776626 
    8600    92.993437    138.32069   -15.754128    1.0776462 
    8700    92.993284    138.32046     -15.7539      1.07763 
    8800    92.993128    138.32023   -15.753669    1.0776139 
    8900    92.992971       138.32   -15.753435    1.0775979 
    9000    92.992812    138.31976   -15.753198    1.0775821 
    9100    92.992651    138.31952   -15.752959    1.0775664 
    9200    92.992488    138.31928    -15.75277    1.0775497 
    9300    92.992324    138.31903   -15.752525    1.0775343 
    9400    92.992158    138.31879   -15.752278     1.077519 
    9500     92.99199    138.31854   -15.752028     1.077504 
    9600     92.99182    138.31829   -15.751776     1.077489 
    9700    92.991649    138.31803   -15.751521    1.0774742 
    9800    92.991475    138.31777   -15.751263    1.0774596 
    9900      92.9913    138.31751   -15.751003    1.0774451 
   10000    92.991124    138.31725   -15.750739    1.0774308 
   10100    92.990945    138.31698   -15.750474    1.0774165 
   10200    92.990764    138.31671   -15.750205    1.0774025 
   10300    92.990582    138.31644   -15.749934    1.0773886 
   10400    92.990398    138.31617   -15.749661    1.0773748 
   10500    92.990212    138.31589   -15.749384    1.0773612 
   10600    92.990025    138.31561   -15.749105    1.0773477 
   10700    92.989836    138.31533   -15.748824    1.0773344 
   10800    92.989644    138.31505   -15.748539    1.0773212 
   10900    92.989451    138.31476   -15.748252    1.0773082 
   11000    92.989257    138.31447   -15.747963    1.0772953 
   11100     92.98906    138.31418    -15.74767    1.0772826 
   11200    92.988862    138.31389   -15.747376      1.07727 
   11300    92.988662    138.31359   -15.747078    1.0772576 
   11400     92.98846    138.31329   -15.746778    1.0772453 
   11500    92.988256    138.31298   -15.746475    1.0772331 
   11600    92.988051    138.31268   -15.746169    1.0772211 
   11700    92.987844    138.31237   -15.745861    1.0772093 
   11800    92.987635    138.31206    -15.74555    1.0771976 
   11900    92.987424    138.31175   -15.745236     1.077186 
   12000    92.987211    138.31143    -15.74492    1.0771746 
   12100    92.986997    138.31111   -15.744601    1.0771633 
   12200    92.986781    138.31079    -15.74428    1.0771522 
   12300    92.986563    138.31046   -15.743955    1.0771412 
   12400    92.986343    138.31014   -15.743629    1.0771304 
   12500    92.986121    138.30981   -15.743299    1.0771197 
   12600    92.985898    138.30948   -15.743019     1.077108 
   12700    92.985673    138.30914   -15.742684    1.0770976 
   12800    92.985446     138.3088   -15.742347    1.0770874 
   12900    92.985217    138.30846   -15.742006    1.0770773 
   13000    92.984987    138.30812   -15.741664    1.0770673 
   13100    92.984754    138.30778   -15.741318    1.0770575 
   13200     92.98452    138.30743    -15.74097    1.0770479 
   13300    92.984284    138.30708   -15.740619    1.0770384 
   13400    92.984046    138.30672   -15.740265     1.077029 
   13500    92.983807    138.30637   -15.739909    1.0770198 
   13600    92.983566    138.30601    -15.73955    1.0770108 
   13700    92.983323    138.30565   -15.739188    1.0770019 
   13800    92.983078    138.30528   -15.738824    1.0769931 
   13900    92.982831    138.30491   -15.738457    1.0769845 
   14000    92.982582    138.30454   -15.738088     1.076976 
   14100    92.982332    138.30417   -15.737715    1.0769677 
   14200     92.98208     138.3038    -15.73734    1.0769595 
   14300    92.981826    138.30342   -15.736963    1.0769515 
   14400     92.98157    138.30304   -15.736582    1.0769436 
   14500    92.981313    138.30266   -15.736199    1.0769359 
   14600    92.981054    138.30227   -15.735814    1.0769283 
   14700    92.980793    138.30188   -15.735425    1.0769209 
   14800     92.98053    138.30149   -15.735034    1.0769136 
   14900    92.980265     138.3011    -15.73464    1.0769065 
   15000    92.979998     138.3007   -15.734244    1.0768995 
   15100     92.97973     138.3003   -15.733845    1.0768926 
   15200     92.97946     138.2999   -15.733443    1.0768859 
   15300    92.979188     138.2995   -15.733039    1.0768794 
   15400    92.978914    138.29909   -15.732632     1.076873 
   15500    92.978639    138.29868   -15.732222    1.0768667 
   15600    92.978361    138.29827   -15.731809    1.0768606 
   15700    92.978082    138.29785   -15.731394    1.0768547 
   15800    92.977801    138.29743   -15.730976    1.0768489 
   15900    92.977519    138.29701   -15.730556    1.0768432 
   16000    92.977234    138.29659   -15.730132    1.0768377 
   16100    92.976948    138.29616   -15.729706    1.0768323 
   16200     92.97666    138.29573   -15.729278    1.0768271 
   16300     92.97637     138.2953   -15.728846     1.076822 
   16400    92.976078    138.29487   -15.728412    1.0768171 
   16500    92.975784    138.29443   -15.727976    1.0768123 
   16600    92.975489    138.29399   -15.727536    1.0768077 
   16700    92.975191    138.29355   -15.727094    1.0768032 
   16800    92.974892    138.29311   -15.726649    1.0767989 
   16900    92.974592    138.29266   -15.726202    1.0767947 
   17000    92.974289    138.29221   -15.725752    1.0767907 
   17100    92.973984    138.29176   -15.725299    1.0767868 
   17200    92.973678     138.2913   -15.724843    1.0767831 
   17300     92.97337    138.29084   -15.724385    1.0767795 
   17400     92.97306    138.29038   -15.723924     1.076776 
   17500    92.972748    138.28992    -15.72346    1.0767727 
   17600    92.972435    138.28945   -15.722994    1.0767696 
   17700    92.972119    138.28898   -15.722525    1.0767666 
   17800    92.971802    138.28851   -15.722053    1.0767637 
   17900    92.971483    138.28804   -15.721578     1.076761 
   18000    92.971162    138.28756   -15.721101    1.0767585 
   18100     92.97084    138.28708   -15.720621    1.0767561 
   18200    92.970515     138.2866   -15.720139    1.0767538 
   18300    92.970189    138.28611   -15.719653    1.0767517 
   18400    92.969861    138.28562   -15.719165    1.0767498 
   18500    92.969531    138.28513   -15.718674     1.076748 
   18600    92.969199    138.28464   -15.718181    1.0767463 
   18700    92.968866    138.28414   -15.717685    1.0767448 
   18800     92.96853    138.28364   -15.717186    1.0767434 
   18900    92.968193    138.28314   -15.716684    1.0767422 
   19000    92.967854    138.28264    -15.71618    1.0767411 
   19100    92.967513    138.28213   -15.715673    1.0767402 
   19200     92.96717    138.28162   -15.715163    1.0767394 
   19300    92.966826    138.28111   -15.714651    1.0767388 
   19400    92.966479    138.28059   -15.714136    1.0767383 
   19500    92.966131    138.28007   -15.713618     1.076738 
   19600    92.965781    138.27955   -15.713097    1.0767378 
   19700    92.965429    138.27903   -15.712574    1.0767378 
   19800    92.965076     138.2785   -15.712048    1.0767379 
   19900     92.96472    138.27798   -15.711519    1.0767382 
   20000    92.964363    138.27744   -15.710987    1.0767386 
   20100    92.964004    138.27691   -15.710453    1.0767392 
   20200    92.963643    138.27637   -15.709916    1.0767399 
   20300     92.96328    138.27583   -15.709377    1.0767408 
   20400    92.962915    138.27529   -15.708834    1.0767418 
   20500    92.962549    138.27475   -15.708289     1.076743 
   20600     92.96218     138.2742   -15.707741    1.0767443 
   20700     92.96181    138.27365    -15.70719    1.0767457 
   20800    92.961438    138.27309   -15.706637    1.0767474 
   20900    92.961064    138.27254   -15.706081    1.0767491 
   21000    92.960689    138.27198   -15.705522     1.076751 
   21100    92.960311    138.27142   -15.704961    1.0767531 
   21200    92.959932    138.27085   -15.704396    1.0767553 
   21300    92.959551    138.27029   -15.703829    1.0767577 
   21400    92.959168    138.26972    -15.70326    1.0767602 
   21500    92.958783    138.26914   -15.702687    1.0767628 
   21600    92.958396    138.26857   -15.702112    1.0767656 
   21700    92.958007    138.26799   -15.701534    1.0767686 
   21800    92.957617    138.26741   -15.700953    1.0767717 
   21900    92.957225    138.26683    -15.70037    1.0767749 
   22000    92.956831    138.26624   -15.699784    1.0767783 
   22100    92.956435    138.26565   -15.699195    1.0767819 
   22200    92.956037    138.26506   -15.698603    1.0767856 
   22300    92.955637    138.26447   -15.698009    1.0767895 
   22400    92.955236    138.26387   -15.697411    1.0767935 
   22500    92.954832    138.26327   -15.696811    1.0767976 
   22600    92.954427    138.26267   -15.696209    1.0768019 
   22700     92.95402    138.26206   -15.695603    1.0768064 
   22800    92.953611    138.26145   -15.694995     1.076811 
   22900      92.9532    138.26084   -15.694384    1.0768157 
   23000    92.952788    138.26023    -15.69377    1.0768206 
   23100    92.952373    138.25961   -15.693154    1.0768257 
   23200    92.951957    138.25899   -15.692535    1.0768309 
   23300    92.951539    138.25837   -15.691913    1.0768362 
   23400    92.951119    138.25775   -15.691288    1.0768417 
   23500    92.950697    138.25712    -15.69066    1.0768474 
   23600    92.950273    138.25649    -15.69003    1.0768532 
   23700    92.949848    138.25585   -15.689397    1.0768591 
   23800     92.94942    138.25522   -15.688761    1.0768652 
   23900    92.948991    138.25458   -15.688123    1.0768715 
   24000     92.94856    138.25394   -15.687481    1.0768779 
   24100    92.948127    138.25329   -15.686837    1.0768844 
   24200    92.947692    138.25265    -15.68619    1.0768911 
   24300    92.947255      138.252   -15.685541     1.076898 
   24400    92.946816    138.25135   -15.684888     1.076905 
   24500    92.946376    138.25069   -15.684233    1.0769121 
   24600    92.945934    138.25003   -15.683575    1.0769194 
   24700    92.945489    138.24937   -15.682914    1.0769269 
   24800    92.945043    138.24871   -15.682251    1.0769345 
   24900    92.944595    138.24804   -15.681585    1.0769422 
   25000    92.944146    138.24737   -15.680916    1.0769501 
   25100    92.943694     138.2467   -15.680244    1.0769582 
   25200     92.94324    138.24603   -15.679569    1.0769664 
   25300    92.942785    138.24535   -15.678892    1.0769747 
   25400    92.942327    138.24467   -15.678211    1.0769832 
   25500    92.941868    138.24399   -15.677528    1.0769919 
   25600    92.941407     138.2433   -15.676843    1.0770007 
   25700    92.940944    138.24261   -15.676154    1.0770096 
   25800     92.94048    138.24192   -15.675463    1.0770187 
   25900    92.940013    138.24123   -15.674769     1.077028 
   26000    92.939544    138.24053   -15.674072    1.0770374 
   26100    92.939074    138.23983   -15.673372     1.077047 
   26200    92.938601    138.23913   -15.672669    1.0770567 
   26300    92.938127    138.23842   -15.671964    1.0770665 
   26400    92.937651    138.23771   -15.671256    1.0770765 
   26500    92.937173      138.237   -15.670545    1.0770867 
   26600    92.936693    138.23629   -15.669831     1.077097 
   26700    92.936212    138.23557   -15.669115    1.0771075 
   26800    92.935728    138.23485   -15.668395    1.0771181 
   26900    92.935243    138.23413   -15.667673    1.0771289 
   27000    92.934755    138.23341   -15.666948    1.0771398 
   27100    92.934266    138.23268    -15.66622    1.0771508 
   27200    92.933775    138.23195    -15.66549    1.0771621 
   27300    92.933282    138.23121   -15.664756    1.0771734 
   27400    92.932787    138.23048    -15.66402     1.077185 
   27500     92.93229    138.22974   -15.663281    1.0771966 
   27600    92.931791      138.229   -15.662539    1.0772085 
   27700     92.93129    138.22825   -15.661795    1.0772204 
   27800    92.930788     138.2275   -15.661047    1.0772326 
   27900    92.930284    138.22675   -15.660297    1.0772448 
   28000    92.929777      138.226   -15.659544    1.0772573 
   28100    92.929269    138.22525   -15.658788    1.0772698 
   28200    92.928759    138.22449   -15.658029    1.0772826 
   28300    92.928247    138.22372   -15.657268    1.0772955 
   28400    92.927733    138.22296   -15.656503    1.0773085 
   28500    92.927217    138.22219   -15.655736    1.0773217 
   28600      92.9267    138.22142   -15.654966     1.077335 
   28700     92.92618    138.22065   -15.654193    1.0773485 
   28800    92.925658    138.21987   -15.653417    1.0773621 
   28900    92.925135     138.2191   -15.652639    1.0773759 
   29000     92.92461    138.21831   -15.651857    1.0773899 
   29100    92.924082    138.21753   -15.651073     1.077404 
   29200    92.923553    138.21674   -15.650286    1.0774182 
   29300    92.923022    138.21595   -15.649496    1.0774326 
   29400    92.922489    138.21516   -15.648704    1.0774472 
   29500    92.921954    138.21437   -15.647908    1.0774619 
   29600    92.921418    138.21357    -15.64711    1.0774767 
   29700    92.920879    138.21277   -15.646308    1.0774917 
   29800    92.920338    138.21196   -15.645504    1.0775069 
   29900    92.919796    138.21115   -15.644697    1.0775222 
   30000    92.919251    138.21034   -15.643888    1.0775377 
   30100    92.918705    138.20953   -15.643075    1.0775533 
   30200    92.918157    138.20872   -15.642259    1.0775691 
   30300    92.917607     138.2079   -15.641441     1.077585 
   30400    92.917055    138.20708    -15.64062    1.0776011 
   30500    92.916501    138.20625   -15.639796    1.0776173 
   30600    92.915945    138.20543   -15.638969    1.0776337 
   30700    92.915387     138.2046   -15.638139    1.0776502 
   30800    92.914827    138.20376   -15.637306    1.0776669 
   30900    92.914265    138.20293   -15.636471    1.0776837 
   31000    92.913702    138.20209   -15.635633    1.0777007 
   31100    92.913136    138.20125   -15.634791    1.0777178 
   31200    92.912569     138.2004   -15.633947    1.0777351 
   31300    92.911999    138.19956     -15.6331    1.0777526 
   31400    92.911428    138.19871   -15.632251    1.0777701 
   31500    92.910855    138.19785   -15.631398    1.0777879 
   31600    92.910279      138.197   -15.630542    1.0778058 
   31700    92.909702    138.19614   -15.629684    1.0778239 
   31800    92.909123    138.19528   -15.628822    1.0778421 
   31900    92.908542    138.19442   -15.627958    1.0778604 
   32000    92.907959    138.19355   -15.627091    1.0778789 
   32100    92.907374    138.19268   -15.626221    1.0778976 
