#Step Temp KinEng PotEng Press 
       0           94    139.81788    -15.76389    1.0912501 
     100    93.999999    139.81788   -15.763889    1.0912212 
     200    93.999997    139.81787   -15.763885    1.0911923 
     300    93.999992    139.81786   -15.763879    1.0911636 
     400    93.999986    139.81786   -15.763869    1.0911351 
     500    93.999978    139.81784   -15.763858    1.0911067 
     600    93.999968    139.81783   -15.763843    1.0910785 
     700    93.999957    139.81781   -15.763826    1.0910504 
     800    93.999944    139.81779   -15.763806    1.0910224 
     900    93.999928    139.81777   -15.763784    1.0909946 
    1000    93.999911    139.81774   -15.763758     1.090967 
    1100    93.999893    139.81772    -15.76373    1.0909395 
    1200    93.999872    139.81769     -15.7637    1.0909121 
    1300     93.99985    139.81765   -15.763667    1.0908849 
    1400    93.999826    139.81762   -15.763631    1.0908578 
    1500      93.9998    139.81758   -15.763592    1.0908309 
    1600    93.999772    139.81754   -15.763551    1.0908041 
    1700    93.999742    139.81749   -15.763507    1.0907775 
    1800    93.999711    139.81745    -15.76346     1.090751 
    1900    93.999678     139.8174   -15.763411    1.0907247 
    2000    93.999643    139.81735   -15.763359    1.0906985 
    2100    93.999606    139.81729   -15.763305    1.0906725 
    2200    93.999568    139.81723   -15.763247    1.0906466 
    2300    93.999528    139.81717   -15.763187    1.0906209 
    2400    93.999485    139.81711   -15.763125    1.0905953 
    2500    93.999442    139.81705   -15.763059    1.0905699 
    2600    93.999396    139.81698   -15.762991    1.0905446 
    2700    93.999348    139.81691   -15.762921    1.0905194 
    2800    93.999299    139.81683   -15.762847    1.0904944 
    2900    93.999248    139.81676   -15.762771    1.0904696 
    3000    93.999195    139.81668   -15.762693    1.0904449 
    3100     93.99914     139.8166   -15.762612    1.0904203 
    3200    93.999084    139.81651   -15.762528    1.0903959 
    3300    93.999026    139.81643   -15.762441    1.0903717 
    3400    93.998966    139.81634   -15.762352    1.0903475 
    3500    93.998904    139.81625   -15.762259    1.0903236 
    3600     93.99884    139.81615   -15.762165    1.0902998 
    3700    93.998775    139.81605   -15.762067    1.0902761 
    3800    93.998707    139.81595   -15.761967    1.0902526 
    3900    93.998638    139.81585   -15.761865    1.0902292 
    4000    93.998568    139.81575   -15.761759     1.090206 
    4100    93.998495    139.81564   -15.761651    1.0901829 
    4200     93.99842    139.81553   -15.761541      1.09016 
    4300    93.998344    139.81541   -15.761427    1.0901372 
    4400    93.998266     139.8153   -15.761311    1.0901146 
    4500    93.998186    139.81518   -15.761192    1.0900921 
    4600    93.998105    139.81506   -15.761071    1.0900697 
    4700    93.998021    139.81493   -15.760947    1.0900475 
    4800    93.997936    139.81481    -15.76082    1.0900255 
    4900    93.997849    139.81468   -15.760691    1.0900036 
    5000     93.99776    139.81454   -15.760559    1.0899819 
    5100     93.99767    139.81441   -15.760424    1.0899603 
    5200    93.997577    139.81427   -15.760287    1.0899388 
    5300    93.997483    139.81413   -15.760146    1.0899175 
    5400    93.997387    139.81399   -15.760004    1.0898963 
    5500    93.997289    139.81384   -15.759858    1.0898753 
    5600     93.99719     139.8137    -15.75971    1.0898545 
    5700    93.997088    139.81355   -15.759559    1.0898338 
    5800    93.996985    139.81339   -15.759406    1.0898132 
    5900     93.99688    139.81324    -15.75925    1.0897928 
    6000    93.996774    139.81308   -15.759091    1.0897725 
    6100    93.996665    139.81292   -15.758929    1.0897524 
    6200    93.996555    139.81275   -15.758765    1.0897324 
    6300    93.996442    139.81258   -15.758599    1.0897126 
    6400    93.996329    139.81242   -15.758429    1.0896929 
    6500    93.996213    139.81224   -15.758257    1.0896734 
    6600    93.996095    139.81207   -15.758082     1.089654 
    6700    93.995976    139.81189   -15.757904    1.0896348 
    6800    93.995855    139.81171   -15.757724    1.0896157 
    6900    93.995732    139.81153   -15.757541    1.0895967 
    7000    93.995607    139.81134   -15.757356    1.0895779 
    7100    93.995481    139.81115   -15.757168    1.0895593 
    7200    93.995352    139.81096   -15.756977    1.0895408 
    7300    93.995222    139.81077   -15.756783    1.0895224 
    7400     93.99509    139.81057   -15.756587    1.0895043 
    7500    93.994956    139.81037   -15.756388    1.0894862 
    7600    93.994821    139.81017   -15.756186    1.0894683 
    7700    93.994684    139.80997   -15.755982    1.0894505 
    7800    93.994544    139.80976   -15.755775    1.0894329 
    7900    93.994403    139.80955   -15.755566    1.0894155 
    8000    93.994261    139.80934   -15.755353    1.0893982 
    8100    93.994116    139.80912   -15.755138     1.089381 
    8200     93.99397    139.80891   -15.754921     1.089364 
    8300    93.993822    139.80869     -15.7547    1.0893471 
    8400    93.993672    139.80846   -15.754477    1.0893304 
    8500     93.99352    139.80824   -15.754252    1.0893138 
    8600    93.993367    139.80801   -15.754023    1.0892974 
    8700    93.993211    139.80778   -15.753792    1.0892811 
    8800    93.993054    139.80754   -15.753559     1.089265 
    8900    93.992895    139.80731   -15.753322     1.089249 
    9000    93.992734    139.80707   -15.753083    1.0892332 
    9100    93.992572    139.80683   -15.752841    1.0892175 
    9200    93.992408    139.80658   -15.752649    1.0892007 
    9300    93.992241    139.80634   -15.752402    1.0891854 
    9400    93.992073    139.80609   -15.752152    1.0891701 
    9500    93.991904    139.80583     -15.7519     1.089155 
    9600    93.991732    139.80558   -15.751645    1.0891401 
    9700    93.991559    139.80532   -15.751387    1.0891253 
    9800    93.991384    139.80506   -15.751126    1.0891107 
    9900    93.991207     139.8048   -15.750863    1.0890962 
   10000    93.991028    139.80453   -15.750597    1.0890818 
   10100    93.990847    139.80426   -15.750329    1.0890676 
   10200    93.990665    139.80399   -15.750057    1.0890536 
   10300    93.990481    139.80372   -15.749783    1.0890397 
   10400    93.990295    139.80344   -15.749507    1.0890259 
   10500    93.990107    139.80316   -15.749227    1.0890123 
   10600    93.989917    139.80288   -15.748945    1.0889988 
   10700    93.989726    139.80259   -15.748661    1.0889855 
   10800    93.989533    139.80231   -15.748373    1.0889724 
   10900    93.989338    139.80202   -15.748083    1.0889594 
   11000    93.989141    139.80172    -15.74779    1.0889465 
   11100    93.988942    139.80143   -15.747495    1.0889338 
   11200    93.988742    139.80113   -15.747197    1.0889212 
   11300     93.98854    139.80083   -15.746896    1.0889088 
   11400    93.988336    139.80053   -15.746593    1.0888965 
   11500     93.98813    139.80022   -15.746286    1.0888844 
   11600    93.987922    139.79991   -15.745977    1.0888724 
   11700    93.987713     139.7996   -15.745666    1.0888606 
   11800    93.987501    139.79929   -15.745352    1.0888489 
   11900    93.987288    139.79897   -15.745035    1.0888374 
   12000    93.987073    139.79865   -15.744715     1.088826 
   12100    93.986857    139.79833   -15.744393    1.0888148 
   12200    93.986638      139.798   -15.744068    1.0888037 
   12300    93.986418    139.79767    -15.74374    1.0887928 
   12400    93.986196    139.79734   -15.743409     1.088782 
   12500    93.985972    139.79701   -15.743076    1.0887714 
   12600    93.985746    139.79667   -15.742793    1.0887597 
   12700    93.985518    139.79634   -15.742454    1.0887493 
   12800    93.985289    139.79599   -15.742113    1.0887391 
   12900    93.985058    139.79565   -15.741769    1.0887291 
   13000    93.984825     139.7953   -15.741423    1.0887192 
   13100     93.98459    139.79495   -15.741073    1.0887095 
   13200    93.984353     139.7946   -15.740721    1.0886999 
   13300    93.984115    139.79425   -15.740367    1.0886904 
   13400    93.983874    139.79389   -15.740009    1.0886811 
   13500    93.983632    139.79353   -15.739649     1.088672 
   13600    93.983388    139.79317   -15.739286     1.088663 
   13700    93.983142     139.7928   -15.738921    1.0886541 
   13800    93.982895    139.79243   -15.738552    1.0886454 
   13900    93.982646    139.79206   -15.738181    1.0886369 
   14000    93.982394    139.79169   -15.737808    1.0886285 
   14100    93.982141    139.79131   -15.737432    1.0886202 
   14200    93.981887    139.79093   -15.737052    1.0886121 
   14300     93.98163    139.79055   -15.736671    1.0886042 
   14400    93.981371    139.79017   -15.736286    1.0885964 
   14500    93.981111    139.78978   -15.735899    1.0885887 
   14600    93.980849    139.78939   -15.735509    1.0885812 
   14700    93.980585      139.789   -15.735117    1.0885738 
   14800    93.980319     139.7886   -15.734721    1.0885666 
   14900    93.980052     139.7882   -15.734323    1.0885596 
   15000    93.979782     139.7878   -15.733923    1.0885527 
   15100    93.979511     139.7874   -15.733519    1.0885459 
   15200    93.979238    139.78699   -15.733113    1.0885393 
   15300    93.978963    139.78659   -15.732704    1.0885328 
   15400    93.978686    139.78617   -15.732293    1.0885265 
   15500    93.978408    139.78576   -15.731878    1.0885204 
   15600    93.978128    139.78534   -15.731461    1.0885143 
   15700    93.977845    139.78492   -15.731042    1.0885085 
   15800    93.977561     139.7845   -15.730619    1.0885028 
   15900    93.977276    139.78408   -15.730194    1.0884972 
   16000    93.976988    139.78365   -15.729766    1.0884918 
   16100    93.976698    139.78322   -15.729336    1.0884865 
   16200    93.976407    139.78278   -15.728902    1.0884814 
   16300    93.976114    139.78235   -15.728466    1.0884764 
   16400    93.975819    139.78191   -15.728028    1.0884716 
   16500    93.975522    139.78147   -15.727586    1.0884669 
   16600    93.975224    139.78102   -15.727142    1.0884624 
   16700    93.974923    139.78058   -15.726695    1.0884581 
   16800    93.974621    139.78013   -15.726245    1.0884538 
   16900    93.974317    139.77967   -15.725793    1.0884498 
   17000    93.974011    139.77922   -15.725338    1.0884458 
   17100    93.973703    139.77876    -15.72488    1.0884421 
   17200    93.973393     139.7783   -15.724419    1.0884385 
   17300    93.973082    139.77784   -15.723956     1.088435 
   17400    93.972768    139.77737    -15.72349    1.0884317 
   17500    93.972453     139.7769   -15.723021    1.0884285 
   17600    93.972136    139.77643    -15.72255    1.0884255 
   17700    93.971818    139.77596   -15.722076    1.0884226 
   17800    93.971497    139.77548   -15.721599    1.0884199 
   17900    93.971174      139.775   -15.721119    1.0884173 
   18000     93.97085    139.77452   -15.720637    1.0884149 
   18100    93.970524    139.77403   -15.720151    1.0884126 
   18200    93.970196    139.77354   -15.719664    1.0884105 
   18300    93.969866    139.77305   -15.719173    1.0884085 
   18400    93.969534    139.77256    -15.71868    1.0884067 
   18500    93.969201    139.77206   -15.718183     1.088405 
   18600    93.968865    139.77157   -15.717685    1.0884035 
   18700    93.968528    139.77106   -15.717183    1.0884021 
   18800    93.968189    139.77056   -15.716679    1.0884009 
   18900    93.967848    139.77005   -15.716172    1.0883999 
   19000    93.967505    139.76954   -15.715662    1.0883989 
   19100    93.967161    139.76903   -15.715149    1.0883982 
   19200    93.966814    139.76852   -15.714634    1.0883975 
   19300    93.966466      139.768   -15.714116    1.0883971 
   19400    93.966116    139.76748   -15.713595    1.0883968 
   19500    93.965764    139.76695   -15.713071    1.0883966 
   19600     93.96541    139.76643   -15.712545    1.0883966 
   19700    93.965054     139.7659   -15.712016    1.0883967 
   19800    93.964697    139.76537   -15.711484     1.088397 
   19900    93.964337    139.76483    -15.71095    1.0883974 
   20000    93.963976    139.76429   -15.710412     1.088398 
   20100    93.963613    139.76375   -15.709872    1.0883987 
   20200    93.963248    139.76321   -15.709329    1.0883996 
   20300    93.962881    139.76267   -15.708784    1.0884007 
   20400    93.962513    139.76212   -15.708235    1.0884018 
   20500    93.962142    139.76157   -15.707684    1.0884032 
   20600     93.96177    139.76101    -15.70713    1.0884047 
   20700    93.961396    139.76046   -15.706574    1.0884063 
   20800    93.961019     139.7599   -15.706014    1.0884081 
   20900    93.960642    139.75933   -15.705452      1.08841 
   21000    93.960262    139.75877   -15.704887    1.0884121 
   21100     93.95988     139.7582   -15.704319    1.0884144 
   21200    93.959496    139.75763   -15.703749    1.0884168 
   21300    93.959111    139.75706   -15.703176    1.0884193 
   21400    93.958724    139.75648     -15.7026     1.088422 
   21500    93.958335     139.7559   -15.702021    1.0884249 
   21600    93.957944    139.75532   -15.701439    1.0884279 
   21700    93.957551    139.75474   -15.700855     1.088431 
   21800    93.957156    139.75415   -15.700268    1.0884343 
   21900     93.95676    139.75356   -15.699678    1.0884378 
   22000    93.956361    139.75297   -15.699085    1.0884414 
   22100    93.955961    139.75237    -15.69849    1.0884451 
   22200    93.955559    139.75177   -15.697892     1.088449 
   22300    93.955155    139.75117   -15.697291    1.0884531 
   22400    93.954749    139.75057   -15.696687    1.0884573 
   22500    93.954341    139.74996   -15.696081    1.0884616 
   22600    93.953931    139.74935   -15.695471    1.0884661 
   22700     93.95352    139.74874   -15.694859    1.0884708 
   22800    93.953106    139.74813   -15.694244    1.0884756 
   22900    93.952691    139.74751   -15.693626    1.0884806 
   23000    93.952274    139.74689   -15.693006    1.0884857 
   23100    93.951855    139.74626   -15.692383     1.088491 
   23200    93.951434    139.74564   -15.691757    1.0884964 
   23300    93.951011    139.74501   -15.691128    1.0885019 
   23400    93.950587    139.74438   -15.690496    1.0885077 
   23500     93.95016    139.74374   -15.689862    1.0885135 
   23600    93.949732    139.74311   -15.689224    1.0885196 
   23700    93.949301    139.74247   -15.688584    1.0885257 
   23800    93.948869    139.74182   -15.687942    1.0885321 
   23900    93.948435    139.74118   -15.687296    1.0885385 
   24000    93.947999    139.74053   -15.686648    1.0885452 
   24100    93.947561    139.73988   -15.685996     1.088552 
   24200    93.947122    139.73922   -15.685342    1.0885589 
   24300     93.94668    139.73857   -15.684685     1.088566 
   24400    93.946237    139.73791   -15.684026    1.0885732 
   24500    93.945791    139.73724   -15.683363    1.0885806 
   24600    93.945344    139.73658   -15.682698    1.0885881 
   24700    93.944895    139.73591    -15.68203    1.0885958 
   24800    93.944444    139.73524   -15.681359    1.0886037 
   24900    93.943991    139.73457   -15.680685    1.0886117 
   25000    93.943536    139.73389   -15.680009    1.0886198 
   25100    93.943079    139.73321    -15.67933    1.0886281 
   25200    93.942621    139.73253   -15.678648    1.0886366 
   25300     93.94216    139.73184   -15.677963    1.0886452 
   25400    93.941698    139.73116   -15.677275     1.088654 
   25500    93.941234    139.73047   -15.676584    1.0886629 
   25600    93.940767    139.72977   -15.675891    1.0886719 
   25700    93.940299    139.72908   -15.675195    1.0886812 
   25800    93.939829    139.72838   -15.674496    1.0886905 
   25900    93.939357    139.72767   -15.673794       1.0887 
   26000    93.938884    139.72697   -15.673089    1.0887097 
   26100    93.938408    139.72626   -15.672381    1.0887195 
   26200     93.93793    139.72555   -15.671671    1.0887295 
   26300    93.937451    139.72484   -15.670958    1.0887397 
   26400     93.93697    139.72412   -15.670242    1.0887499 
   26500    93.936486     139.7234   -15.669523    1.0887604 
   26600    93.936001    139.72268   -15.668801     1.088771 
   26700    93.935514    139.72196   -15.668077    1.0887817 
   26800    93.935025    139.72123   -15.667349    1.0887926 
   26900    93.934534     139.7205   -15.666619    1.0888036 
   27000    93.934041    139.71977   -15.665886    1.0888148 
   27100    93.933546    139.71903    -15.66515    1.0888262 
   27200     93.93305    139.71829   -15.664412    1.0888377 
   27300    93.932551    139.71755    -15.66367    1.0888494 
   27400    93.932051    139.71681   -15.662926    1.0888612 
   27500    93.931548    139.71606   -15.662178    1.0888731 
   27600    93.931044    139.71531   -15.661428    1.0888853 
   27700    93.930538    139.71456   -15.660675    1.0888975 
   27800     93.93003     139.7138    -15.65992      1.08891 
   27900     93.92952    139.71304   -15.659161    1.0889225 
   28000    93.929008    139.71228   -15.658399    1.0889353 
   28100    93.928494    139.71152   -15.657635    1.0889481 
   28200    93.927978    139.71075   -15.656868    1.0889612 
   28300     93.92746    139.70998   -15.656098    1.0889744 
   28400    93.926941    139.70921   -15.655325    1.0889877 
   28500    93.926419    139.70843   -15.654549    1.0890012 
   28600    93.925896    139.70765    -15.65377    1.0890149 
   28700     93.92537    139.70687   -15.652989    1.0890287 
   28800    93.924843    139.70609   -15.652204    1.0890426 
   28900    93.924314     139.7053   -15.651417    1.0890567 
   29000    93.923782    139.70451   -15.650627     1.089071 
   29100    93.923249    139.70372   -15.649834    1.0890854 
   29200    93.922714    139.70292   -15.649038       1.0891 
   29300    93.922177    139.70212   -15.648239    1.0891147 
   29400    93.921638    139.70132   -15.647438    1.0891296 
   29500    93.921097    139.70051   -15.646633    1.0891446 
   29600    93.920555    139.69971   -15.645826    1.0891598 
   29700     93.92001     139.6989   -15.645016    1.0891751 
   29800    93.919463    139.69808   -15.644202    1.0891906 
   29900    93.918915    139.69727   -15.643386    1.0892063 
   30000    93.918364    139.69645   -15.642568    1.0892221 
   30100    93.917812    139.69563   -15.641746     1.089238 
   30200    93.917257     139.6948   -15.640921    1.0892541 
   30300    93.916701    139.69397   -15.640094    1.0892704 
   30400    93.916142    139.69314   -15.639263    1.0892868 
   30500    93.915582    139.69231    -15.63843    1.0893034 
   30600     93.91502    139.69147   -15.637593    1.0893201 
   30700    93.914456    139.69064   -15.636754     1.089337 
   30800     93.91389    139.68979   -15.635912     1.089354 
   30900    93.913322    139.68895   -15.635067    1.0893712 
   31000    93.912752     139.6881    -15.63422    1.0893886 
   31100     93.91218    139.68725   -15.633369    1.0894061 
   31200    93.911606     139.6864   -15.632515    1.0894237 
   31300     93.91103    139.68554   -15.631659    1.0894415 
   31400    93.910452    139.68468   -15.630799    1.0894595 
   31500    93.909872    139.68382   -15.629937    1.0894776 
   31600    93.909291    139.68295   -15.629072    1.0894958 
   31700    93.908707    139.68208   -15.628204    1.0895143 
   31800    93.908121    139.68121   -15.627333    1.0895328 
   31900    93.907534    139.68034   -15.626459    1.0895516 
   32000    93.906944    139.67946   -15.625582    1.0895705 
   32100    93.906353    139.67858   -15.624702    1.0895895 
