#Step Temp KinEng PotEng Press 
       0           78    116.01909   -11.208446   0.90517611 
     100    77.999995    116.01908   -11.208439   0.90515083 
     200     77.99999    116.01907   -11.208431   0.90512561 
     300    77.999984    116.01906   -11.208422   0.90510046 
     400    77.999977    116.01905   -11.208411   0.90507537 
     500    77.999969    116.01904     -11.2084   0.90505034 
     600     77.99996    116.01903   -11.208387   0.90502538 
     700     77.99995    116.01902   -11.208372   0.90500049 
     800     77.99994      116.019   -11.208305   0.90497689 
     900    77.999929    116.01898   -11.208288   0.90495212 
    1000    77.999917    116.01897    -11.20827   0.90492742 
    1100    77.999904    116.01895   -11.208251   0.90490278 
    1200    77.999891    116.01893   -11.208231    0.9048782 
    1300    77.999876     116.0189   -11.208209   0.90485369 
    1400    77.999861    116.01888   -11.208187   0.90482924 
    1500    77.999845    116.01886   -11.208163   0.90480485 
    1600    77.999828    116.01883   -11.208138   0.90478053 
    1700     77.99981    116.01881   -11.208111   0.90475627 
    1800    77.999792    116.01878   -11.208084   0.90473208 
    1900    77.999773    116.01875   -11.208055   0.90470795 
    2000    77.999753    116.01872   -11.208025   0.90468388 
    2100    77.999732    116.01869   -11.207994   0.90465988 
    2200     77.99971    116.01866   -11.207962   0.90463594 
    2300    77.999687    116.01862   -11.207928   0.90461206 
    2400    77.999664    116.01859   -11.207893   0.90458825 
    2500     77.99964    116.01855   -11.207857    0.9045645 
    2600    77.999615    116.01852    -11.20782   0.90454081 
    2700     77.99959    116.01848   -11.207782   0.90451719 
    2800    77.999563    116.01844   -11.207742   0.90449363 
    2900    77.999536     116.0184   -11.207701   0.90447014 
    3000    77.999508    116.01836   -11.207659    0.9044467 
    3100    77.999479    116.01831   -11.207616   0.90442334 
    3200    77.999449    116.01827   -11.207572   0.90440003 
    3300    77.999419    116.01822   -11.207526   0.90437679 
    3400    77.999388    116.01818    -11.20748   0.90435361 
    3500    77.999356    116.01813   -11.207432   0.90433049 
    3600    77.999323    116.01808   -11.207383   0.90430744 
    3700     77.99929    116.01803   -11.207332   0.90428445 
    3800    77.999255    116.01798   -11.207281   0.90426152 
    3900     77.99922    116.01793   -11.207228   0.90423866 
    4000    77.999184    116.01788   -11.207174   0.90421586 
    4100    77.999148    116.01782   -11.207119   0.90419312 
    4200     77.99911    116.01777   -11.207063   0.90417044 
    4300    77.999072    116.01771   -11.207006   0.90414783 
    4400    77.999033    116.01765   -11.206947   0.90412528 
    4500    77.998994    116.01759   -11.206887    0.9041028 
    4600    77.998953    116.01753   -11.206826   0.90408038 
    4700    77.998912    116.01747   -11.206764   0.90405802 
    4800     77.99887    116.01741   -11.206701   0.90403572 
    4900    77.998827    116.01734   -11.206636   0.90401348 
    5000    77.998784    116.01728    -11.20657   0.90399131 
    5100     77.99874    116.01721   -11.206556   0.90396797 
    5200    77.998695    116.01715   -11.206488   0.90394592 
    5300    77.998649    116.01708   -11.206419   0.90392394 
    5400    77.998602    116.01701   -11.206348   0.90390202 
    5500    77.998555    116.01694   -11.206277   0.90388016 
    5600    77.998507    116.01687   -11.206204   0.90385836 
    5700    77.998459     116.0168    -11.20613   0.90383663 
    5800    77.998409    116.01672   -11.206055   0.90381496 
    5900    77.998359    116.01665   -11.205979   0.90379336 
    6000    77.998308    116.01657   -11.205901   0.90377181 
    6100    77.998256     116.0165   -11.205823   0.90375033 
    6200    77.998204    116.01642   -11.205743   0.90372891 
    6300    77.998151    116.01634   -11.205662   0.90370755 
    6400    77.998097    116.01626    -11.20558   0.90368626 
    6500    77.998043    116.01618   -11.205497   0.90366503 
    6600    77.997987     116.0161   -11.205412   0.90364386 
    6700    77.997931    116.01601   -11.205327   0.90362275 
    6800    77.997875    116.01593    -11.20524    0.9036017 
    6900    77.997817    116.01584   -11.205152   0.90358072 
    7000    77.997759    116.01576   -11.205063    0.9035598 
    7100    77.997701    116.01567   -11.204973   0.90353895 
    7200    77.997641    116.01558   -11.204881   0.90351815 
    7300    77.997581    116.01549   -11.204789   0.90349742 
    7400     77.99752     116.0154   -11.204695   0.90347675 
    7500    77.997458    116.01531     -11.2046   0.90345614 
    7600    77.997396    116.01522   -11.204504   0.90343559 
    7700    77.997333    116.01512   -11.204407   0.90341511 
    7800    77.997269    116.01503   -11.204308   0.90339469 
    7900    77.997205    116.01493   -11.204209   0.90337433 
    8000     77.99714    116.01483   -11.204108   0.90335404 
    8100    77.997074    116.01474   -11.204007    0.9033338 
    8200    77.997008    116.01464   -11.203904   0.90331363 
    8300    77.996941    116.01454   -11.203799   0.90329352 
    8400    77.996873    116.01444   -11.203694   0.90327347 
    8500    77.996805    116.01434   -11.203588   0.90325349 
    8600    77.996736    116.01423    -11.20348   0.90323356 
    8700    77.996666    116.01413   -11.203372    0.9032137 
    8800    77.996595    116.01402   -11.203262    0.9031939 
    8900    77.996524    116.01392   -11.203151   0.90317417 
    9000    77.996453    116.01381   -11.203039   0.90315449 
    9100     77.99638     116.0137   -11.202926   0.90313488 
    9200    77.996307     116.0136   -11.202811   0.90311533 
    9300    77.996234    116.01349   -11.202696   0.90309584 
    9400     77.99616    116.01338   -11.202579   0.90307642 
    9500    77.996085    116.01326   -11.202461   0.90305705 
    9600    77.996009    116.01315   -11.202342   0.90303775 
    9700    77.995933    116.01304   -11.202222   0.90301851 
    9800    77.995856    116.01293   -11.202101   0.90299933 
    9900    77.995779    116.01281   -11.201979   0.90298022 
   10000    77.995701    116.01269   -11.201855   0.90296116 
   10100    77.995622    116.01258    -11.20173   0.90294217 
   10200    77.995543    116.01246   -11.201605   0.90292324 
   10300    77.995463    116.01234   -11.201478   0.90290438 
   10400    77.995382    116.01222    -11.20135   0.90288557 
   10500    77.995301     116.0121   -11.201221   0.90286683 
   10600     77.99522    116.01198    -11.20109   0.90284814 
   10700    77.995137    116.01186   -11.200959   0.90282953 
   10800    77.995055    116.01173   -11.200879   0.90280973 
   10900    77.994971    116.01161   -11.200745   0.90279124 
   11000    77.994887    116.01148    -11.20061    0.9027728 
   11100    77.994803    116.01136   -11.200475   0.90275443 
   11200    77.994717    116.01123   -11.200338   0.90273612 
   11300    77.994632     116.0111   -11.200199   0.90271787 
   11400    77.994545    116.01098    -11.20006   0.90269969 
   11500    77.994458    116.01085    -11.19992   0.90268156 
   11600    77.994371    116.01072   -11.199778    0.9026635 
   11700    77.994283    116.01059   -11.199636    0.9026455 
   11800    77.994194    116.01045   -11.199492   0.90262757 
   11900    77.994105    116.01032   -11.199347   0.90260969 
   12000    77.994016    116.01019   -11.199201   0.90259188 
   12100    77.993925    116.01005   -11.199054   0.90257412 
   12200    77.993835    116.00992   -11.198906   0.90255643 
   12300    77.993743    116.00978   -11.198756   0.90253881 
   12400    77.993652    116.00965   -11.198606   0.90252124 
   12500    77.993559    116.00951   -11.198454   0.90250374 
   12600    77.993467    116.00937   -11.198302   0.90248629 
   12700    77.993373    116.00923   -11.198148   0.90246891 
   12800    77.993279    116.00909   -11.197993   0.90245159 
   12900    77.993185    116.00895   -11.197837   0.90243434 
   13000     77.99309    116.00881    -11.19768   0.90241714 
   13100    77.992995    116.00867   -11.197522   0.90240001 
   13200    77.992899    116.00853   -11.197362   0.90238294 
   13300    77.992803    116.00838   -11.197202   0.90236593 
   13400    77.992706    116.00824   -11.197041   0.90234899 
   13500    77.992608    116.00809   -11.196878    0.9023321 
   13600    77.992511    116.00795   -11.196714   0.90231528 
   13700    77.992412     116.0078   -11.196549   0.90229852 
   13800    77.992314    116.00766   -11.196436   0.90228059 
   13900    77.992214    116.00751   -11.196269   0.90226395 
   14000    77.992115    116.00736   -11.196101   0.90224737 
   14100    77.992015    116.00721   -11.195932   0.90223086 
   14200    77.991914    116.00706   -11.195761   0.90221441 
   14300    77.991813    116.00691    -11.19559   0.90219802 
   14400    77.991712    116.00676   -11.195417    0.9021817 
   14500     77.99161    116.00661   -11.195244   0.90216543 
   14600    77.991508    116.00646   -11.195069   0.90214923 
   14700    77.991405     116.0063   -11.194893   0.90213309 
   14800    77.991302    116.00615   -11.194716   0.90211701 
   14900    77.991198      116.006   -11.194538     0.902101 
   15000    77.991094    116.00584   -11.194359   0.90208504 
   15100     77.99099    116.00569   -11.194179   0.90206915 
   15200    77.990885    116.00553   -11.193998   0.90205332 
   15300     77.99078    116.00537   -11.193816   0.90203755 
   15400    77.990674    116.00522   -11.193632   0.90202185 
   15500    77.990568    116.00506   -11.193448   0.90200621 
   15600    77.990462     116.0049   -11.193262   0.90199062 
   15700    77.990356    116.00474   -11.193075   0.90197511 
   15800    77.990249    116.00458   -11.192888   0.90195965 
   15900    77.990141    116.00442   -11.192699   0.90194426 
   16000    77.990033    116.00426   -11.192509   0.90192892 
   16100    77.989925     116.0041   -11.192318   0.90191365 
   16200    77.989817    116.00394   -11.192126   0.90189845 
   16300    77.989708    116.00378   -11.191933    0.9018833 
   16400    77.989599    116.00362   -11.191739   0.90186822 
   16500     77.98949    116.00346   -11.191543    0.9018532 
   16600     77.98938    116.00329   -11.191347   0.90183824 
   16700     77.98927    116.00313   -11.191149   0.90182334 
   16800    77.989159    116.00296   -11.190951   0.90180851 
   16900    77.989049     116.0028   -11.190751   0.90179374 
   17000    77.988938    116.00263   -11.190551   0.90177903 
   17100    77.988826    116.00247   -11.190349   0.90176438 
   17200    77.988715     116.0023   -11.190146    0.9017498 
   17300    77.988603    116.00214   -11.189942   0.90173528 
   17400    77.988491    116.00197   -11.189737   0.90172082 
   17500    77.988378     116.0018   -11.189531   0.90170642 
   17600    77.988266    116.00164   -11.189324   0.90169209 
   17700    77.988153    116.00147   -11.189116   0.90167782 
   17800     77.98804     116.0013   -11.188906   0.90166361 
   17900    77.987926    116.00113   -11.188696   0.90164946 
   18000    77.987813    116.00096   -11.188485   0.90163538 
   18100    77.987699    116.00079   -11.188272   0.90162136 
   18200    77.987585    116.00062   -11.188059    0.9016074 
   18300    77.987471    116.00045   -11.187844   0.90159351 
   18400    77.987356    116.00028   -11.187629   0.90157967 
   18500    77.987241    116.00011   -11.187412    0.9015659 
   18600    77.987126    115.99994   -11.187194    0.9015522 
   18700    77.987011    115.99977   -11.186975   0.90153855 
   18800    77.986896     115.9996   -11.186756   0.90152497 
   18900    77.986781    115.99943   -11.186535   0.90151145 
   19000    77.986665    115.99925   -11.186313     0.901498 
   19100    77.986549    115.99908    -11.18609   0.90148461 
   19200    77.986433    115.99891   -11.185866   0.90147128 
   19300    77.986317    115.99874    -11.18564   0.90145801 
   19400    77.986201    115.99856   -11.185414   0.90144481 
   19500    77.986085    115.99839   -11.185187   0.90143167 
   19600    77.985968    115.99822   -11.184959   0.90141859 
   19700    77.985852    115.99804   -11.184729   0.90140558 
   19800    77.985735    115.99787   -11.184499   0.90139263 
   19900    77.985618     115.9977   -11.184267   0.90137974 
   20000    77.985501    115.99752   -11.184035   0.90136691 
   20100    77.985384    115.99735   -11.183801   0.90135415 
   20200    77.985267    115.99718   -11.183567   0.90134146 
   20300     77.98515      115.997   -11.183331   0.90132882 
   20400    77.985033    115.99683   -11.183095   0.90131625 
   20500    77.984916    115.99665   -11.182857   0.90130375 
   20600    77.984798    115.99648   -11.182618    0.9012913 
   20700    77.984681     115.9963   -11.182378   0.90127892 
   20800    77.984564    115.99613   -11.182137   0.90126661 
   20900    77.984446    115.99595   -11.181895   0.90125435 
   21000    77.984329    115.99578   -11.181653   0.90124217 
   21100    77.984212     115.9956   -11.181409   0.90123004 
   21200    77.984094    115.99543   -11.181164   0.90121798 
   21300    77.983977    115.99526   -11.180918   0.90120598 
   21400    77.983859    115.99508    -11.18067   0.90119405 
   21500    77.983742    115.99491   -11.180422   0.90118218 
   21600    77.983625    115.99473   -11.180173   0.90117037 
   21700    77.983507    115.99456   -11.179923   0.90115863 
   21800     77.98339    115.99438   -11.179672   0.90114696 
   21900    77.983273    115.99421    -11.17942   0.90113534 
   22000    77.983156    115.99403   -11.179166   0.90112379 
   22100    77.983039    115.99386   -11.178912   0.90111231 
   22200    77.982922    115.99369   -11.178657   0.90110089 
   22300    77.982805    115.99351     -11.1784   0.90108953 
   22400    77.982688    115.99334   -11.178143   0.90107824 
   22500    77.982572    115.99317   -11.177884   0.90106701 
   22600    77.982455    115.99299   -11.177625   0.90105585 
   22700    77.982339    115.99282   -11.177365   0.90104475 
   22800    77.982223    115.99265   -11.177103   0.90103372 
   22900    77.982107    115.99247    -11.17684   0.90102275 
   23000    77.981991     115.9923   -11.176577   0.90101185 
   23100    77.981875    115.99213   -11.176312   0.90100101 
   23200     77.98176    115.99196   -11.176047   0.90099024 
   23300    77.981644    115.99179    -11.17578   0.90097953 
   23400    77.981529    115.99161   -11.175513   0.90096889 
   23500    77.981414    115.99144   -11.175244   0.90095831 
   23600    77.981299    115.99127   -11.174974   0.90094779 
   23700    77.981185     115.9911   -11.174704   0.90093735 
   23800    77.981071    115.99093   -11.174432   0.90092696 
   23900    77.980957    115.99076   -11.174159   0.90091665 
   24000    77.980843    115.99059   -11.173885    0.9009064 
   24100     77.98073    115.99043   -11.173611   0.90089621 
   24200    77.980617    115.99026   -11.173335   0.90088609 
   24300    77.980504    115.99009   -11.173058   0.90087603 
   24400    77.980391    115.98992    -11.17278   0.90086605 
   24500    77.980279    115.98976   -11.172502   0.90085612 
   24600    77.980167    115.98959   -11.172222   0.90084627 
   24700    77.980056    115.98942   -11.171941   0.90083648 
   24800    77.979945    115.98926   -11.171659   0.90082675 
   24900    77.979834    115.98909   -11.171376   0.90081709 
   25000    77.979723    115.98893   -11.171093    0.9008075 
   25100    77.979613    115.98877   -11.170808   0.90079797 
   25200    77.979504     115.9886   -11.170522   0.90078851 
   25300    77.979395    115.98844   -11.170235   0.90077912 
   25400    77.979286    115.98828   -11.169947   0.90076979 
   25500    77.979177    115.98812   -11.169658   0.90076054 
   25600     77.97907    115.98796   -11.169368   0.90075134 
   25700    77.978962     115.9878   -11.169078   0.90074222 
   25800    77.978855    115.98764   -11.168786   0.90073316 
   25900    77.978749    115.98748   -11.168493   0.90072417 
   26000    77.978643    115.98732   -11.168199   0.90071524 
   26100    77.978537    115.98716   -11.167904   0.90070638 
   26200    77.978432    115.98701   -11.167608   0.90069759 
   26300    77.978328    115.98685   -11.167312   0.90068887 
   26400    77.978224     115.9867   -11.167014   0.90068022 
   26500    77.978121    115.98655   -11.166715   0.90067163 
   26600    77.978018    115.98639   -11.166415   0.90066311 
   26700    77.977916    115.98624   -11.166114   0.90065466 
   26800    77.977815    115.98609   -11.165812   0.90064628 
   26900    77.977714    115.98594    -11.16551   0.90063796 
   27000    77.977614    115.98579   -11.165206   0.90062971 
   27100    77.977514    115.98564   -11.164901   0.90062154 
   27200    77.977415     115.9855   -11.164595   0.90061343 
   27300    77.977317    115.98535   -11.164289   0.90060538 
   27400    77.977219     115.9852   -11.163981   0.90059741 
   27500    77.977122    115.98506   -11.163672   0.90058951 
   27600    77.977026    115.98492   -11.163362   0.90058167 
   27700    77.976931    115.98477   -11.163052    0.9005739 
   27800    77.976836    115.98463    -11.16274   0.90056621 
   27900    77.976742    115.98449   -11.162427   0.90055858 
   28000    77.976649    115.98436   -11.162114   0.90055102 
   28100    77.976557    115.98422   -11.161799   0.90054353 
   28200    77.976465    115.98408   -11.161484   0.90053611 
   28300    77.976374    115.98395   -11.161167   0.90052876 
   28400    77.976285    115.98381    -11.16085   0.90052148 
   28500    77.976196    115.98368   -11.160531   0.90051427 
   28600    77.976108    115.98355   -11.160211   0.90050714 
   28700     77.97602    115.98342   -11.159891   0.90050007 
   28800    77.975934    115.98329    -11.15957   0.90049307 
   28900    77.975848    115.98317   -11.159247   0.90048614 
   29000    77.975764    115.98304   -11.158924   0.90047928 
   29100     77.97568    115.98292   -11.158599    0.9004725 
   29200    77.975598    115.98279   -11.158274   0.90046578 
   29300    77.975516    115.98267   -11.157948   0.90045914 
   29400    77.975436    115.98255    -11.15762   0.90045256 
   29500    77.975356    115.98243   -11.157292   0.90044606 
   29600    77.975278    115.98232   -11.156963   0.90043963 
   29700      77.9752     115.9822   -11.156633   0.90043327 
   29800    77.975124    115.98209   -11.156302   0.90042699 
   29900    77.975049    115.98198   -11.155969   0.90042077 
   30000    77.974974    115.98186   -11.155636   0.90041463 
   30100    77.974901    115.98176   -11.155302   0.90040856 
   30200    77.974829    115.98165   -11.154967   0.90040256 
   30300    77.974759    115.98154   -11.154631   0.90039664 
   30400    77.974689    115.98144   -11.154294   0.90039078 
   30500    77.974621    115.98134   -11.153956   0.90038501 
   30600    77.974553    115.98124   -11.153618    0.9003793 
   30700    77.974487    115.98114   -11.153278   0.90037367 
   30800    77.974423    115.98104   -11.152937   0.90036811 
   30900    77.974359    115.98095   -11.152595   0.90036262 
   31000    77.974297    115.98086   -11.152252   0.90035721 
   31100    77.974236    115.98077   -11.151909   0.90035187 
   31200    77.974177    115.98068   -11.151564   0.90034661 
   31300    77.974119    115.98059   -11.151219   0.90034142 
   31400    77.974062    115.98051   -11.150872   0.90033631 
   31500    77.974007    115.98043   -11.150525   0.90033127 
   31600    77.973953    115.98035   -11.150176    0.9003263 
   31700      77.9739    115.98027   -11.149827   0.90032141 
   31800    77.973849    115.98019   -11.149477    0.9003166 
   31900    77.973799    115.98012   -11.149125   0.90031186 
   32000    77.973751    115.98005   -11.148773   0.90030719 
   32100    77.973705    115.97998    -11.14842    0.9003026 
