#Step Temp KinEng PotEng Press 
       0           78    116.01909   -11.208446   0.90517611 
     100    77.999995    116.01908   -11.208439   0.90515083 
     200     77.99999    116.01907   -11.208431   0.90512561 
     300    77.999984    116.01906   -11.208422   0.90510046 
     400    77.999977    116.01905   -11.208411   0.90507537 
     500    77.999969    116.01904     -11.2084   0.90505034 
     600     77.99996    116.01903   -11.208387   0.90502538 
     700     77.99995    116.01902   -11.208372   0.90500049 
     800     77.99994      116.019   -11.208305   0.90497689 
     900    77.999929    116.01898   -11.208288   0.90495212 
    1000    77.999917    116.01897    -11.20827   0.90492742 
    1100    77.999904    116.01895   -11.208251   0.90490278 
    1200     77.99989    116.01893   -11.208231    0.9048782 
    1300    77.999876     116.0189   -11.208209   0.90485369 
    1400    77.999861    116.01888   -11.208187   0.90482924 
    1500    77.999845    116.01886   -11.208163   0.90480485 
    1600    77.999828    116.01883   -11.208138   0.90478053 
    1700     77.99981    116.01881   -11.208111   0.90475627 
    1800    77.999792    116.01878   -11.208084   0.90473208 
    1900    77.999772    116.01875   -11.208055   0.90470795 
    2000    77.999752    116.01872   -11.208025   0.90468388 
    2100    77.999731    116.01869   -11.207994   0.90465988 
    2200     77.99971    116.01866   -11.207962   0.90463593 
    2300    77.999687    116.01862   -11.207928   0.90461206 
    2400    77.999664    116.01859   -11.207893   0.90458824 
    2500     77.99964    116.01855   -11.207857   0.90456449 
    2600    77.999615    116.01852    -11.20782   0.90454081 
    2700    77.999589    116.01848   -11.207782   0.90451718 
    2800    77.999562    116.01844   -11.207742   0.90449362 
    2900    77.999535     116.0184   -11.207701   0.90447013 
    3000    77.999507    116.01836   -11.207659   0.90444669 
    3100    77.999478    116.01831   -11.207616   0.90442332 
    3200    77.999448    116.01827   -11.207572   0.90440001 
    3300    77.999418    116.01822   -11.207526   0.90437677 
    3400    77.999386    116.01818    -11.20748   0.90435359 
    3500    77.999354    116.01813   -11.207432   0.90433047 
    3600    77.999321    116.01808   -11.207383   0.90430742 
    3700    77.999287    116.01803   -11.207332   0.90428442 
    3800    77.999253    116.01798   -11.207281   0.90426149 
    3900    77.999218    116.01793   -11.207228   0.90423863 
    4000    77.999182    116.01787   -11.207174   0.90421582 
    4100    77.999145    116.01782   -11.207119   0.90419308 
    4200    77.999107    116.01776   -11.207063    0.9041704 
    4300    77.999068     116.0177   -11.207006   0.90414779 
    4400    77.999029    116.01764   -11.206947   0.90412524 
    4500    77.998989    116.01759   -11.206887   0.90410275 
    4600    77.998948    116.01752   -11.206826   0.90408032 
    4700    77.998907    116.01746   -11.206764   0.90405795 
    4800    77.998864     116.0174   -11.206701   0.90403565 
    4900    77.998821    116.01734   -11.206636   0.90401341 
    5000    77.998777    116.01727    -11.20657   0.90399123 
    5100    77.998732     116.0172   -11.206556   0.90396788 
    5200    77.998687    116.01714   -11.206488   0.90394583 
    5300    77.998641    116.01707   -11.206419   0.90392384 
    5400    77.998594      116.017   -11.206348   0.90390191 
    5500    77.998546    116.01693   -11.206277   0.90388005 
    5600    77.998497    116.01685   -11.206204   0.90385825 
    5700    77.998448    116.01678    -11.20613   0.90383651 
    5800    77.998398    116.01671   -11.206055   0.90381483 
    5900    77.998347    116.01663   -11.205979   0.90379321 
    6000    77.998295    116.01655   -11.205901   0.90377166 
    6100    77.998242    116.01647   -11.205823   0.90375017 
    6200    77.998189     116.0164   -11.205743   0.90372874 
    6300    77.998135    116.01632   -11.205662   0.90370737 
    6400     77.99808    116.01623    -11.20558   0.90368606 
    6500    77.998025    116.01615   -11.205497   0.90366482 
    6600    77.997969    116.01607   -11.205412   0.90364364 
    6700    77.997912    116.01598   -11.205327   0.90362252 
    6800    77.997854     116.0159    -11.20524   0.90360146 
    6900    77.997795    116.01581   -11.205152   0.90358046 
    7000    77.997736    116.01572   -11.205063   0.90355953 
    7100    77.997676    116.01563   -11.204973   0.90353866 
    7200    77.997615    116.01554   -11.204881   0.90351785 
    7300    77.997553    116.01545   -11.204789    0.9034971 
    7400    77.997491    116.01536   -11.204695   0.90347641 
    7500    77.997428    116.01526     -11.2046   0.90345578 
    7600    77.997364    116.01517   -11.204504   0.90343522 
    7700    77.997299    116.01507   -11.204407   0.90341472 
    7800    77.997234    116.01497   -11.204308   0.90339428 
    7900    77.997168    116.01488   -11.204209    0.9033739 
    8000    77.997101    116.01478   -11.204108   0.90335358 
    8100    77.997033    116.01468   -11.204007   0.90333332 
    8200    77.996965    116.01457   -11.203904   0.90331313 
    8300    77.996896    116.01447   -11.203799     0.903293 
    8400    77.996826    116.01437   -11.203694   0.90327292 
    8500    77.996756    116.01426   -11.203588   0.90325291 
    8600    77.996684    116.01416    -11.20348   0.90323296 
    8700    77.996612    116.01405   -11.203372   0.90321308 
    8800    77.996539    116.01394   -11.203262   0.90319325 
    8900    77.996466    116.01383   -11.203151   0.90317348 
    9000    77.996392    116.01372   -11.203039   0.90315378 
    9100    77.996317    116.01361   -11.202926   0.90313414 
    9200    77.996241     116.0135   -11.202811   0.90311455 
    9300    77.996165    116.01338   -11.202696   0.90309503 
    9400    77.996087    116.01327   -11.202579   0.90307557 
    9500     77.99601    116.01315   -11.202461   0.90305617 
    9600    77.995931    116.01304   -11.202342   0.90303684 
    9700    77.995852    116.01292   -11.202222   0.90301756 
    9800    77.995771     116.0128   -11.202101   0.90299834 
    9900    77.995691    116.01268   -11.201979   0.90297919 
   10000    77.995609    116.01256   -11.201855   0.90296009 
   10100    77.995527    116.01244    -11.20173   0.90294106 
   10200    77.995444    116.01231   -11.201605   0.90292209 
   10300     77.99536    116.01219   -11.201478   0.90290318 
   10400    77.995276    116.01206    -11.20135   0.90288433 
   10500    77.995191    116.01194   -11.201221   0.90286554 
   10600    77.995105    116.01181    -11.20109   0.90284681 
   10700    77.995019    116.01168   -11.200959   0.90282814 
   10800    77.994932    116.01155   -11.200879   0.90280829 
   10900    77.994844    116.01142   -11.200745   0.90278975 
   11000    77.994755    116.01129    -11.20061   0.90277126 
   11100    77.994666    116.01115   -11.200475   0.90275283 
   11200    77.994576    116.01102   -11.200338   0.90273447 
   11300    77.994485    116.01089   -11.200199   0.90271616 
   11400    77.994394    116.01075    -11.20006   0.90269791 
   11500    77.994301    116.01061    -11.19992   0.90267973 
   11600    77.994209    116.01047   -11.199778   0.90266161 
   11700    77.994115    116.01034   -11.199636   0.90264354 
   11800    77.994021     116.0102   -11.199492   0.90262554 
   11900    77.993926    116.01005   -11.199347    0.9026076 
   12000    77.993831    116.00991   -11.199201   0.90258971 
   12100    77.993734    116.00977   -11.199054   0.90257189 
   12200    77.993637    116.00962   -11.198906   0.90255413 
   12300     77.99354    116.00948   -11.198756   0.90253642 
   12400    77.993441    116.00933   -11.198606   0.90251878 
   12500    77.993342    116.00919   -11.198454    0.9025012 
   12600    77.993243    116.00904   -11.198302   0.90248368 
   12700    77.993142    116.00889   -11.198148   0.90246622 
   12800    77.993041    116.00874   -11.197993   0.90244881 
   12900     77.99294    116.00859   -11.197837   0.90243147 
   13000    77.992837    116.00843    -11.19768   0.90241419 
   13100    77.992734    116.00828   -11.197522   0.90239697 
   13200    77.992631    116.00813   -11.197362   0.90237981 
   13300    77.992526    116.00797   -11.197202    0.9023627 
   13400    77.992421    116.00782   -11.197041   0.90234566 
   13500    77.992315    116.00766   -11.196878   0.90232868 
   13600    77.992209     116.0075   -11.196714   0.90231176 
   13700    77.992102    116.00734   -11.196549   0.90229489 
   13800    77.991994    116.00718   -11.196436   0.90227685 
   13900    77.991886    116.00702   -11.196269   0.90226011 
   14000    77.991777    116.00686   -11.196101   0.90224343 
   14100    77.991667    116.00669   -11.195932    0.9022268 
   14200    77.991557    116.00653   -11.195761   0.90221024 
   14300    77.991446    116.00637    -11.19559   0.90219373 
   14400    77.991334     116.0062   -11.195417   0.90217729 
   14500    77.991222    116.00603   -11.195244    0.9021609 
   14600    77.991109    116.00586   -11.195069   0.90214458 
   14700    77.990996     116.0057   -11.194893   0.90212831 
   14800    77.990882    116.00553   -11.194716    0.9021121 
   14900    77.990767    116.00536   -11.194538   0.90209596 
   15000    77.990651    116.00518   -11.194359   0.90207987 
   15100    77.990535    116.00501   -11.194179   0.90206384 
   15200    77.990418    116.00484   -11.193998   0.90204787 
   15300    77.990301    116.00466   -11.193816   0.90203196 
   15400    77.990183    116.00449   -11.193632   0.90201611 
   15500    77.990064    116.00431   -11.193448   0.90200032 
   15600    77.989945    116.00413   -11.193262   0.90198458 
   15700    77.989825    116.00395   -11.193076   0.90196891 
   15800    77.989705    116.00378   -11.192888    0.9019533 
   15900    77.989584     116.0036   -11.192699   0.90193774 
   16000    77.989462    116.00341   -11.192509   0.90192224 
   16100     77.98934    116.00323   -11.192318   0.90190681 
   16200    77.989217    116.00305   -11.192126   0.90189143 
   16300    77.989093    116.00287   -11.191933   0.90187611 
   16400    77.988969    116.00268   -11.191739   0.90186085 
   16500    77.988844     116.0025   -11.191543   0.90184565 
   16600    77.988719    116.00231   -11.191347   0.90183051 
   16700    77.988593    116.00212   -11.191149   0.90181543 
   16800    77.988466    116.00193   -11.190951   0.90180041 
   16900    77.988339    116.00174   -11.190751   0.90178544 
   17000    77.988211    116.00155   -11.190551   0.90177053 
   17100    77.988082    116.00136   -11.190349   0.90175569 
   17200    77.987953    116.00117   -11.190146    0.9017409 
   17300    77.987824    116.00098   -11.189942   0.90172617 
   17400    77.987694    116.00078   -11.189737    0.9017115 
   17500    77.987563    116.00059   -11.189531   0.90169689 
   17600    77.987431    116.00039   -11.189324   0.90168234 
   17700    77.987299     116.0002   -11.189116   0.90166784 
   17800    77.987167          116   -11.188907   0.90165341 
   17900    77.987034     115.9998   -11.188696   0.90163903 
   18000      77.9869     115.9996   -11.188485   0.90162471 
   18100    77.986766     115.9994   -11.188272   0.90161045 
   18200    77.986631     115.9992   -11.188059   0.90159625 
   18300    77.986495      115.999   -11.187844   0.90158211 
   18400    77.986359     115.9988   -11.187629   0.90156802 
   18500    77.986223     115.9986   -11.187412     0.901554 
   18600    77.986086    115.99839   -11.187194   0.90154003 
   18700    77.985948    115.99819   -11.186975   0.90152612 
   18800    77.985809    115.99798   -11.186756   0.90151227 
   18900    77.985671    115.99777   -11.186535   0.90149848 
   19000    77.985531    115.99757   -11.186313   0.90148475 
   19100    77.985391    115.99736    -11.18609   0.90147107 
   19200    77.985251    115.99715   -11.185866   0.90145745 
   19300     77.98511    115.99694    -11.18564    0.9014439 
   19400    77.984968    115.99673   -11.185414   0.90143039 
   19500    77.984826    115.99652   -11.185187   0.90141695 
   19600    77.984683    115.99631   -11.184959   0.90140357 
   19700     77.98454    115.99609   -11.184729   0.90139024 
   19800    77.984396    115.99588   -11.184499   0.90137698 
   19900    77.984252    115.99566   -11.184268   0.90136377 
   20000    77.984107    115.99545   -11.184035   0.90135062 
   20100    77.983961    115.99523   -11.183801   0.90133752 
   20200    77.983815    115.99502   -11.183567   0.90132449 
   20300    77.983669     115.9948   -11.183331   0.90131151 
   20400    77.983522    115.99458   -11.183095   0.90129859 
   20500    77.983374    115.99436   -11.182857   0.90128573 
   20600    77.983226    115.99414   -11.182618   0.90127293 
   20700    77.983078    115.99392   -11.182378   0.90126018 
   20800    77.982929     115.9937   -11.182137    0.9012475 
   20900    77.982779    115.99347   -11.181896   0.90123487 
   21000    77.982629    115.99325   -11.181653    0.9012223 
   21100    77.982478    115.99303   -11.181409   0.90120978 
   21200    77.982327     115.9928   -11.181164   0.90119733 
   21300    77.982175    115.99258   -11.180918   0.90118493 
   21400    77.982023    115.99235   -11.180671   0.90117259 
   21500    77.981871    115.99212   -11.180422   0.90116031 
   21600    77.981717    115.99189   -11.180173   0.90114808 
   21700    77.981564    115.99167   -11.179923   0.90113592 
   21800     77.98141    115.99144   -11.179672   0.90112381 
   21900    77.981255    115.99121    -11.17942   0.90111176 
   22000      77.9811    115.99098   -11.179166   0.90109976 
   22100    77.980944    115.99074   -11.178912   0.90108783 
   22200    77.980788    115.99051   -11.178657   0.90107595 
   22300    77.980631    115.99028     -11.1784   0.90106413 
   22400    77.980474    115.99005   -11.178143   0.90105237 
   22500    77.980317    115.98981   -11.177885   0.90104066 
   22600    77.980159    115.98958   -11.177625   0.90102901 
   22700        77.98    115.98934   -11.177365   0.90101742 
   22800    77.979841     115.9891   -11.177103   0.90100589 
   22900    77.979682    115.98887   -11.176841   0.90099441 
   23000    77.979522    115.98863   -11.176577     0.900983 
   23100    77.979362    115.98839   -11.176313   0.90097163 
   23200    77.979201    115.98815   -11.176047   0.90096033 
   23300    77.979039    115.98791    -11.17578   0.90094909 
   23400    77.978878    115.98767   -11.175513    0.9009379 
   23500    77.978715    115.98743   -11.175244   0.90092677 
   23600    77.978553    115.98719   -11.174974   0.90091569 
   23700     77.97839    115.98695   -11.174704   0.90090468 
   23800    77.978226     115.9867   -11.174432   0.90089372 
   23900    77.978062    115.98646   -11.174159   0.90088281 
   24000    77.977898    115.98621   -11.173886   0.90087197 
   24100    77.977733    115.98597   -11.173611   0.90086118 
   24200    77.977567    115.98572   -11.173335   0.90085045 
   24300    77.977402    115.98548   -11.173058   0.90083978 
   24400    77.977236    115.98523   -11.172781   0.90082916 
   24500    77.977069    115.98498   -11.172502    0.9008186 
   24600    77.976902    115.98473   -11.172222    0.9008081 
   24700    77.976734    115.98448   -11.171941   0.90079766 
   24800    77.976567    115.98423   -11.171659   0.90078727 
   24900    77.976398    115.98398   -11.171377   0.90077694 
   25000     77.97623    115.98373   -11.171093   0.90076667 
   25100    77.976061    115.98348   -11.170808   0.90075645 
   25200    77.975891    115.98323   -11.170522   0.90074629 
   25300    77.975721    115.98298   -11.170235   0.90073619 
   25400    77.975551    115.98272   -11.169948   0.90072614 
   25500     77.97538    115.98247   -11.169659   0.90071615 
   25600    77.975209    115.98221   -11.169369   0.90070622 
   25700    77.975037    115.98196   -11.169078   0.90069635 
   25800    77.974866     115.9817   -11.168786   0.90068653 
   25900    77.974693    115.98145   -11.168493   0.90067677 
   26000    77.974521    115.98119   -11.168199   0.90066706 
   26100    77.974347    115.98093   -11.167905   0.90065741 
   26200    77.974174    115.98067   -11.167609   0.90064782 
   26300       77.974    115.98042   -11.167312   0.90063829 
   26400    77.973826    115.98016   -11.167014   0.90062881 
   26500    77.973651     115.9799   -11.166715   0.90061939 
   26600    77.973477    115.97964   -11.166416   0.90061003 
   26700    77.973301    115.97938   -11.166115   0.90060072 
   26800    77.973126    115.97912   -11.165813   0.90059147 
   26900     77.97295    115.97885    -11.16551   0.90058228 
   27000    77.972773    115.97859   -11.165206   0.90057314 
   27100    77.972596    115.97833   -11.164902   0.90056406 
   27200    77.972419    115.97806   -11.164596   0.90055504 
   27300    77.972242     115.9778   -11.164289   0.90054607 
   27400    77.972064    115.97754   -11.163981   0.90053716 
   27500    77.971886    115.97727   -11.163673    0.9005283 
   27600    77.971708    115.97701   -11.163363   0.90051951 
   27700    77.971529    115.97674   -11.163052   0.90051077 
   27800     77.97135    115.97647   -11.162741   0.90050208 
   27900     77.97117    115.97621   -11.162428   0.90049345 
   28000     77.97099    115.97594   -11.162114   0.90048488 
   28100     77.97081    115.97567     -11.1618   0.90047637 
   28200     77.97063     115.9754   -11.161484   0.90046791 
   28300    77.970449    115.97513   -11.161168   0.90045951 
   28400    77.970268    115.97486    -11.16085   0.90045116 
   28500    77.970087    115.97459   -11.160532   0.90044287 
   28600    77.969905    115.97432   -11.160212   0.90043464 
   28700    77.969723    115.97405   -11.159892   0.90042646 
   28800    77.969541    115.97378    -11.15957   0.90041834 
   28900    77.969358    115.97351   -11.159248   0.90041028 
   29000    77.969175    115.97324   -11.158924   0.90040227 
   29100    77.968992    115.97297     -11.1586   0.90039432 
   29200    77.968808    115.97269   -11.158275   0.90038642 
   29300    77.968625    115.97242   -11.157948   0.90037858 
   29400    77.968441    115.97215   -11.157621    0.9003708 
   29500    77.968256    115.97187   -11.157293   0.90036307 
   29600    77.968072     115.9716   -11.156964    0.9003554 
   29700    77.967887    115.97132   -11.156634   0.90034779 
   29800    77.967702    115.97105   -11.156302   0.90034023 
   29900    77.967516    115.97077    -11.15597   0.90033273 
   30000    77.967331     115.9705   -11.155637   0.90032529 
   30100    77.967145    115.97022   -11.155303    0.9003179 
   30200    77.966958    115.96994   -11.154968   0.90031056 
   30300    77.966772    115.96966   -11.154632   0.90030329 
   30400    77.966585    115.96939   -11.154295   0.90029607 
   30500    77.966398    115.96911   -11.153957    0.9002889 
   30600    77.966211    115.96883   -11.153619   0.90028179 
   30700    77.966024    115.96855   -11.153279   0.90027474 
   30800    77.965836    115.96827   -11.152938   0.90026774 
   30900    77.965648    115.96799   -11.152596    0.9002608 
   31000     77.96546    115.96771   -11.152254   0.90025392 
   31100    77.965272    115.96743    -11.15191   0.90024709 
   31200    77.965083    115.96715   -11.151565   0.90024032 
   31300    77.964894    115.96687    -11.15122    0.9002336 
   31400    77.964705    115.96659   -11.150873   0.90022694 
   31500    77.964516    115.96631   -11.150526   0.90022033 
   31600    77.964327    115.96603   -11.150178   0.90021378 
   31700    77.964137    115.96575   -11.149828   0.90020729 
   31800    77.963947    115.96546   -11.149478   0.90020085 
   31900    77.963757    115.96518   -11.149127   0.90019447 
   32000    77.963567     115.9649   -11.148774   0.90018815 
   32100    77.963376    115.96461   -11.148421   0.90018188 
