#Step Temp KinEng PotEng Press 
       0           78    116.01909   -11.208446   0.90517611 
     100    77.999995    116.01908   -11.208439   0.90515083 
     200     77.99999    116.01907   -11.208431   0.90512561 
     300    77.999984    116.01906   -11.208422   0.90510046 
     400    77.999977    116.01905   -11.208411   0.90507537 
     500    77.999969    116.01904     -11.2084   0.90505034 
     600     77.99996    116.01903   -11.208387   0.90502538 
     700     77.99995    116.01902   -11.208372   0.90500049 
     800     77.99994      116.019   -11.208305   0.90497689 
     900    77.999929    116.01898   -11.208288   0.90495212 
    1000    77.999917    116.01897    -11.20827   0.90492742 
    1100    77.999904    116.01895   -11.208251   0.90490278 
    1200     77.99989    116.01893   -11.208231    0.9048782 
    1300    77.999876     116.0189   -11.208209   0.90485369 
    1400    77.999861    116.01888   -11.208187   0.90482924 
    1500    77.999845    116.01886   -11.208163   0.90480485 
    1600    77.999828    116.01883   -11.208138   0.90478053 
    1700     77.99981    116.01881   -11.208111   0.90475627 
    1800    77.999792    116.01878   -11.208084   0.90473208 
    1900    77.999772    116.01875   -11.208055   0.90470795 
    2000    77.999752    116.01872   -11.208025   0.90468388 
    2100    77.999731    116.01869   -11.207994   0.90465987 
    2200     77.99971    116.01866   -11.207962   0.90463593 
    2300    77.999687    116.01862   -11.207928   0.90461206 
    2400    77.999664    116.01859   -11.207893   0.90458824 
    2500    77.999639    116.01855   -11.207857   0.90456449 
    2600    77.999614    116.01852    -11.20782   0.90454081 
    2700    77.999589    116.01848   -11.207782   0.90451718 
    2800    77.999562    116.01844   -11.207742   0.90449362 
    2900    77.999535     116.0184   -11.207701   0.90447012 
    3000    77.999507    116.01835   -11.207659   0.90444669 
    3100    77.999478    116.01831   -11.207616   0.90442332 
    3200    77.999448    116.01827   -11.207572   0.90440001 
    3300    77.999417    116.01822   -11.207526   0.90437677 
    3400    77.999386    116.01818    -11.20748   0.90435358 
    3500    77.999354    116.01813   -11.207432   0.90433047 
    3600    77.999321    116.01808   -11.207383   0.90430741 
    3700    77.999287    116.01803   -11.207332   0.90428442 
    3800    77.999252    116.01798   -11.207281   0.90426149 
    3900    77.999217    116.01792   -11.207228   0.90423862 
    4000    77.999181    116.01787   -11.207174   0.90421581 
    4100    77.999144    116.01782   -11.207119   0.90419307 
    4200    77.999106    116.01776   -11.207063   0.90417039 
    4300    77.999067     116.0177   -11.207006   0.90414778 
    4400    77.999028    116.01764   -11.206947   0.90412522 
    4500    77.998988    116.01758   -11.206887   0.90410273 
    4600    77.998947    116.01752   -11.206826    0.9040803 
    4700    77.998905    116.01746   -11.206764   0.90405794 
    4800    77.998863     116.0174   -11.206701   0.90403563 
    4900     77.99882    116.01733   -11.206636   0.90401339 
    5000    77.998775    116.01727    -11.20657   0.90399121 
    5100    77.998731     116.0172   -11.206556   0.90396786 
    5200    77.998685    116.01713   -11.206488   0.90394581 
    5300    77.998639    116.01706   -11.206419   0.90392382 
    5400    77.998591    116.01699   -11.206348   0.90390189 
    5500    77.998543    116.01692   -11.206277   0.90388002 
    5600    77.998494    116.01685   -11.206204   0.90385822 
    5700    77.998445    116.01678    -11.20613   0.90383647 
    5800    77.998395     116.0167   -11.206055   0.90381479 
    5900    77.998343    116.01662   -11.205979   0.90379317 
    6000    77.998292    116.01655   -11.205901   0.90377162 
    6100    77.998239    116.01647   -11.205823   0.90375012 
    6200    77.998185    116.01639   -11.205743   0.90372869 
    6300    77.998131    116.01631   -11.205662   0.90370732 
    6400    77.998076    116.01623    -11.20558   0.90368601 
    6500     77.99802    116.01614   -11.205497   0.90366476 
    6600    77.997964    116.01606   -11.205412   0.90364358 
    6700    77.997906    116.01597   -11.205327   0.90362246 
    6800    77.997848    116.01589    -11.20524   0.90360139 
    6900    77.997789     116.0158   -11.205152   0.90358039 
    7000     77.99773    116.01571   -11.205063   0.90355946 
    7100    77.997669    116.01562   -11.204973   0.90353858 
    7200    77.997608    116.01553   -11.204881   0.90351777 
    7300    77.997546    116.01544   -11.204789   0.90349701 
    7400    77.997483    116.01535   -11.204695   0.90347632 
    7500     77.99742    116.01525     -11.2046   0.90345569 
    7600    77.997356    116.01516   -11.204504   0.90343512 
    7700    77.997291    116.01506   -11.204407   0.90341461 
    7800    77.997225    116.01496   -11.204308   0.90339417 
    7900    77.997158    116.01486   -11.204209   0.90337378 
    8000    77.997091    116.01476   -11.204108   0.90335346 
    8100    77.997023    116.01466   -11.204007    0.9033332 
    8200    77.996954    116.01456   -11.203904     0.903313 
    8300    77.996884    116.01445   -11.203799   0.90329286 
    8400    77.996814    116.01435   -11.203694   0.90327278 
    8500    77.996743    116.01424   -11.203588   0.90325276 
    8600    77.996671    116.01414    -11.20348   0.90323281 
    8700    77.996598    116.01403   -11.203372   0.90321291 
    8800    77.996525    116.01392   -11.203262   0.90319308 
    8900    77.996451    116.01381   -11.203151   0.90317331 
    9000    77.996376     116.0137   -11.203039   0.90315359 
    9100      77.9963    116.01359   -11.202926   0.90313394 
    9200    77.996224    116.01347   -11.202811   0.90311435 
    9300    77.996147    116.01336   -11.202696   0.90309482 
    9400    77.996069    116.01324   -11.202579   0.90307535 
    9500     77.99599    116.01312   -11.202461   0.90305595 
    9600    77.995911    116.01301   -11.202342    0.9030366 
    9700     77.99583    116.01289   -11.202222   0.90301731 
    9800     77.99575    116.01277   -11.202101   0.90299809 
    9900    77.995668    116.01265   -11.201979   0.90297892 
   10000    77.995585    116.01252   -11.201855   0.90295982 
   10100    77.995502     116.0124    -11.20173   0.90294077 
   10200    77.995418    116.01227   -11.201605   0.90292179 
   10300    77.995334    116.01215   -11.201478   0.90290287 
   10400    77.995248    116.01202    -11.20135     0.902884 
   10500    77.995162    116.01189   -11.201221    0.9028652 
   10600    77.995076    116.01176    -11.20109   0.90284646 
   10700    77.994988    116.01163   -11.200959   0.90282778 
   10800      77.9949     116.0115   -11.200879   0.90280792 
   10900    77.994811    116.01137   -11.200745   0.90278936 
   11000    77.994721    116.01124    -11.20061   0.90277086 
   11100     77.99463     116.0111   -11.200475   0.90275242 
   11200    77.994539    116.01097   -11.200338   0.90273404 
   11300    77.994447    116.01083   -11.200199   0.90271572 
   11400    77.994354    116.01069    -11.20006   0.90269746 
   11500    77.994261    116.01055    -11.19992   0.90267926 
   11600    77.994167    116.01041   -11.199778   0.90266112 
   11700    77.994072    116.01027   -11.199636   0.90264304 
   11800    77.993976    116.01013   -11.199492   0.90262501 
   11900     77.99388    116.00999   -11.199347   0.90260705 
   12000    77.993783    116.00984   -11.199201   0.90258915 
   12100    77.993685     116.0097   -11.199054   0.90257131 
   12200    77.993586    116.00955   -11.198906   0.90255353 
   12300    77.993487     116.0094   -11.198756   0.90253581 
   12400    77.993387    116.00925   -11.198606   0.90251815 
   12500    77.993286     116.0091   -11.198454   0.90250055 
   12600    77.993185    116.00895   -11.198302     0.902483 
   12700    77.993083     116.0088   -11.198148   0.90246552 
   12800     77.99298    116.00865   -11.197993    0.9024481 
   12900    77.992877    116.00849   -11.197837   0.90243073 
   13000    77.992772    116.00834    -11.19768   0.90241343 
   13100    77.992667    116.00818   -11.197522   0.90239619 
   13200    77.992562    116.00802   -11.197363     0.902379 
   13300    77.992455    116.00787   -11.197202   0.90236187 
   13400    77.992348    116.00771   -11.197041   0.90234481 
   13500     77.99224    116.00755   -11.196878    0.9023278 
   13600    77.992132    116.00739   -11.196714   0.90231085 
   13700    77.992022    116.00722   -11.196549   0.90229396 
   13800    77.991912    116.00706   -11.196436    0.9022759 
   13900    77.991802    116.00689   -11.196269   0.90225913 
   14000     77.99169    116.00673   -11.196101   0.90224241 
   14100    77.991578    116.00656   -11.195932   0.90222576 
   14200    77.991466    116.00639   -11.195761   0.90220917 
   14300    77.991352    116.00623    -11.19559   0.90219263 
   14400    77.991238    116.00606   -11.195417   0.90217616 
   14500    77.991123    116.00588   -11.195244   0.90215974 
   14600    77.991007    116.00571   -11.195069   0.90214339 
   14700    77.990891    116.00554   -11.194893   0.90212709 
   14800    77.990774    116.00537   -11.194716   0.90211085 
   14900    77.990656    116.00519   -11.194538   0.90209467 
   15000    77.990538    116.00501   -11.194359   0.90207854 
   15100    77.990419    116.00484   -11.194179   0.90206248 
   15200    77.990299    116.00466   -11.193998   0.90204648 
   15300    77.990179    116.00448   -11.193816   0.90203053 
   15400    77.990058     116.0043   -11.193632   0.90201464 
   15500    77.989936    116.00412   -11.193448   0.90199881 
   15600    77.989813    116.00394   -11.193262   0.90198304 
   15700     77.98969    116.00375   -11.193076   0.90196733 
   15800    77.989566    116.00357   -11.192888   0.90195168 
   15900    77.989442    116.00338   -11.192699   0.90193608 
   16000    77.989317     116.0032   -11.192509   0.90192054 
   16100    77.989191    116.00301   -11.192318   0.90190507 
   16200    77.989064    116.00282   -11.192126   0.90188965 
   16300    77.988937    116.00263   -11.191933   0.90187428 
   16400    77.988809    116.00244   -11.191739   0.90185898 
   16500     77.98868    116.00225   -11.191543   0.90184374 
   16600    77.988551    116.00206   -11.191347   0.90182855 
   16700    77.988421    116.00187   -11.191149   0.90181342 
   16800     77.98829    116.00167   -11.190951   0.90179835 
   16900    77.988159    116.00148   -11.190751   0.90178334 
   17000    77.988027    116.00128   -11.190551   0.90176838 
   17100    77.987894    116.00108   -11.190349   0.90175349 
   17200    77.987761    116.00088   -11.190146   0.90173865 
   17300    77.987627    116.00068   -11.189942   0.90172387 
   17400    77.987492    116.00048   -11.189737   0.90170914 
   17500    77.987357    116.00028   -11.189531   0.90169448 
   17600    77.987221    116.00008   -11.189324   0.90167987 
   17700    77.987084    115.99988   -11.189116   0.90166532 
   17800    77.986946    115.99967   -11.188907   0.90165083 
   17900    77.986808    115.99947   -11.188696    0.9016364 
   18000     77.98667    115.99926   -11.188485   0.90162202 
   18100     77.98653    115.99905   -11.188272    0.9016077 
   18200     77.98639    115.99885   -11.188059   0.90159344 
   18300     77.98625    115.99864   -11.187844   0.90157924 
   18400    77.986108    115.99843   -11.187629   0.90156509 
   18500    77.985967    115.99822   -11.187412     0.901551 
   18600    77.985824      115.998   -11.187194   0.90153697 
   18700    77.985681    115.99779   -11.186975     0.901523 
   18800    77.985537    115.99758   -11.186756   0.90150908 
   18900    77.985392    115.99736   -11.186535   0.90149522 
   19000    77.985247    115.99714   -11.186313   0.90148142 
   19100    77.985101    115.99693    -11.18609   0.90146768 
   19200    77.984955    115.99671   -11.185866   0.90145399 
   19300    77.984807    115.99649    -11.18564   0.90144036 
   19400     77.98466    115.99627   -11.185414   0.90142679 
   19500    77.984511    115.99605   -11.185187   0.90141327 
   19600    77.984362    115.99583   -11.184959   0.90139982 
   19700    77.984212    115.99561   -11.184729   0.90138641 
   19800    77.984062    115.99538   -11.184499   0.90137307 
   19900    77.983911    115.99516   -11.184268   0.90135978 
   20000    77.983759    115.99493   -11.184035   0.90134655 
   20100    77.983607    115.99471   -11.183802   0.90133338 
   20200    77.983454    115.99448   -11.183567   0.90132026 
   20300    77.983301    115.99425   -11.183331    0.9013072 
   20400    77.983146    115.99402   -11.183095    0.9012942 
   20500    77.982992    115.99379   -11.182857   0.90128126 
   20600    77.982836    115.99356   -11.182618   0.90126837 
   20700     77.98268    115.99333   -11.182378   0.90125553 
   20800    77.982523    115.99309   -11.182137   0.90124276 
   20900    77.982366    115.99286   -11.181896   0.90123004 
   21000    77.982208    115.99262   -11.181653   0.90121738 
   21100    77.982049    115.99239   -11.181409   0.90120477 
   21200     77.98189    115.99215   -11.181164   0.90119222 
   21300     77.98173    115.99191   -11.180918   0.90117973 
   21400     77.98157    115.99168   -11.180671   0.90116729 
   21500    77.981409    115.99144   -11.180423   0.90115491 
   21600    77.981247     115.9912   -11.180173   0.90114259 
   21700    77.981085    115.99095   -11.179923   0.90113032 
   21800    77.980922    115.99071   -11.179672   0.90111811 
   21900    77.980759    115.99047    -11.17942   0.90110596 
   22000    77.980594    115.99022   -11.179166   0.90109386 
   22100     77.98043    115.98998   -11.178912   0.90108182 
   22200    77.980264    115.98973   -11.178657   0.90106983 
   22300    77.980098    115.98949     -11.1784    0.9010579 
   22400    77.979932    115.98924   -11.178143   0.90104603 
   22500    77.979765    115.98899   -11.177885   0.90103421 
   22600    77.979597    115.98874   -11.177625   0.90102245 
   22700    77.979429    115.98849   -11.177365   0.90101074 
   22800     77.97926    115.98824   -11.177103   0.90099909 
   22900     77.97909    115.98799   -11.176841    0.9009875 
   23000     77.97892    115.98773   -11.176577   0.90097596 
   23100    77.978749    115.98748   -11.176313   0.90096448 
   23200    77.978578    115.98722   -11.176047   0.90095305 
   23300    77.978406    115.98697    -11.17578   0.90094168 
   23400    77.978233    115.98671   -11.175513   0.90093037 
   23500     77.97806    115.98645   -11.175244   0.90091911 
   23600    77.977886     115.9862   -11.174975    0.9009079 
   23700    77.977712    115.98594   -11.174704   0.90089676 
   23800    77.977537    115.98568   -11.174432   0.90088566 
   23900    77.977362    115.98542   -11.174159   0.90087463 
   24000    77.977185    115.98515   -11.173886   0.90086365 
   24100    77.977009    115.98489   -11.173611   0.90085272 
   24200    77.976832    115.98463   -11.173335   0.90084185 
   24300    77.976654    115.98436   -11.173058   0.90083104 
   24400    77.976475     115.9841   -11.172781   0.90082028 
   24500    77.976296    115.98383   -11.172502   0.90080957 
   24600    77.976117    115.98356   -11.172222   0.90079892 
   24700    77.975937     115.9833   -11.171941   0.90078833 
   24800    77.975756    115.98303    -11.17166   0.90077779 
   24900    77.975575    115.98276   -11.171377   0.90076731 
   25000    77.975393    115.98249   -11.171093   0.90075688 
   25100     77.97521    115.98222   -11.170808   0.90074651 
   25200    77.975027    115.98194   -11.170522   0.90073619 
   25300    77.974844    115.98167   -11.170235   0.90072593 
   25400    77.974659     115.9814   -11.169948   0.90071572 
   25500    77.974475    115.98112   -11.169659   0.90070557 
   25600     77.97429    115.98085   -11.169369   0.90069547 
   25700    77.974104    115.98057   -11.169078   0.90068543 
   25800    77.973917    115.98029   -11.168786   0.90067544 
   25900     77.97373    115.98001   -11.168493   0.90066551 
   26000    77.973543    115.97974     -11.1682   0.90065563 
   26100    77.973355    115.97946   -11.167905   0.90064581 
   26200    77.973166    115.97918   -11.167609   0.90063604 
   26300    77.972977    115.97889   -11.167312   0.90062633 
   26400    77.972787    115.97861   -11.167014   0.90061667 
   26500    77.972597    115.97833   -11.166715   0.90060707 
   26600    77.972406    115.97804   -11.166416   0.90059752 
   26700    77.972215    115.97776   -11.166115   0.90058802 
   26800    77.972023    115.97747   -11.165813   0.90057858 
   26900     77.97183    115.97719    -11.16551   0.90056919 
   27000    77.971637     115.9769   -11.165207   0.90055986 
   27100    77.971444    115.97661   -11.164902   0.90055059 
   27200     77.97125    115.97632   -11.164596   0.90054136 
   27300    77.971055    115.97604   -11.164289    0.9005322 
   27400     77.97086    115.97574   -11.163982   0.90052308 
   27500    77.970664    115.97545   -11.163673   0.90051402 
   27600    77.970468    115.97516   -11.163363   0.90050502 
   27700    77.970271    115.97487   -11.163053   0.90049607 
   27800    77.970074    115.97458   -11.162741   0.90048717 
   27900    77.969876    115.97428   -11.162428   0.90047833 
   28000    77.969677    115.97399   -11.162115   0.90046954 
   28100    77.969479    115.97369     -11.1618    0.9004608 
   28200    77.969279    115.97339   -11.161484   0.90045212 
   28300    77.969079     115.9731   -11.161168   0.90044349 
   28400    77.968879     115.9728    -11.16085   0.90043492 
   28500    77.968678     115.9725   -11.160532    0.9004264 
   28600    77.968476     115.9722   -11.160212   0.90041794 
   28700    77.968274     115.9719   -11.159892   0.90040953 
   28800    77.968072     115.9716    -11.15957   0.90040117 
   28900    77.967868     115.9713   -11.159248   0.90039287 
   29000    77.967665    115.97099   -11.158925   0.90038462 
   29100    77.967461    115.97069     -11.1586   0.90037642 
   29200    77.967256    115.97038   -11.158275   0.90036828 
   29300    77.967051    115.97008   -11.157949   0.90036019 
   29400    77.966845    115.96977   -11.157621   0.90035216 
   29500    77.966639    115.96947   -11.157293   0.90034417 
   29600    77.966433    115.96916   -11.156964   0.90033625 
   29700    77.966225    115.96885   -11.156634   0.90032837 
   29800    77.966018    115.96854   -11.156303   0.90032055 
   29900     77.96581    115.96823   -11.155971   0.90031278 
   30000    77.965601    115.96792   -11.155637   0.90030507 
   30100    77.965392    115.96761   -11.155303   0.90029741 
   30200    77.965182     115.9673   -11.154968    0.9002898 
   30300    77.964972    115.96699   -11.154632   0.90028225 
   30400    77.964761    115.96667   -11.154296   0.90027475 
   30500     77.96455    115.96636   -11.153958    0.9002673 
   30600    77.964339    115.96605   -11.153619    0.9002599 
   30700    77.964127    115.96573   -11.153279   0.90025256 
   30800    77.963914    115.96541   -11.152938   0.90024528 
   30900    77.963701     115.9651   -11.152597   0.90023804 
   31000    77.963487    115.96478   -11.152254   0.90023086 
   31100    77.963273    115.96446    -11.15191   0.90022373 
   31200    77.963059    115.96414   -11.151566   0.90021665 
   31300    77.962844    115.96382    -11.15122   0.90020963 
   31400    77.962628     115.9635   -11.150874   0.90020266 
   31500    77.962412    115.96318   -11.150526   0.90019574 
   31600    77.962196    115.96286   -11.150178   0.90018888 
   31700    77.961979    115.96254   -11.149829   0.90018207 
   31800    77.961762    115.96221   -11.149478   0.90017531 
   31900    77.961544    115.96189   -11.149127    0.9001686 
   32000    77.961326    115.96156   -11.148775   0.90016195 
   32100    77.961107    115.96124   -11.148422   0.90015535 
