#Step Temp KinEng PotEng Press 
       0           78    116.01909   -11.208446   0.90517611 
     100    77.999995    116.01908   -11.208439   0.90515083 
     200     77.99999    116.01907   -11.208431   0.90512561 
     300    77.999984    116.01906   -11.208422   0.90510046 
     400    77.999977    116.01905   -11.208411   0.90507537 
     500    77.999969    116.01904     -11.2084   0.90505034 
     600     77.99996    116.01903   -11.208387   0.90502538 
     700     77.99995    116.01902   -11.208372   0.90500049 
     800     77.99994      116.019   -11.208305   0.90497689 
     900    77.999929    116.01898   -11.208288   0.90495212 
    1000    77.999917    116.01897    -11.20827   0.90492742 
    1100    77.999904    116.01895   -11.208251   0.90490278 
    1200     77.99989    116.01893   -11.208231    0.9048782 
    1300    77.999876     116.0189   -11.208209   0.90485369 
    1400    77.999861    116.01888   -11.208187   0.90482924 
    1500    77.999845    116.01886   -11.208163   0.90480485 
    1600    77.999828    116.01883   -11.208138   0.90478053 
    1700     77.99981    116.01881   -11.208111   0.90475627 
    1800    77.999792    116.01878   -11.208084   0.90473208 
    1900    77.999772    116.01875   -11.208055   0.90470795 
    2000    77.999752    116.01872   -11.208025   0.90468388 
    2100    77.999731    116.01869   -11.207994   0.90465987 
    2200     77.99971    116.01866   -11.207962   0.90463593 
    2300    77.999687    116.01862   -11.207928   0.90461206 
    2400    77.999664    116.01859   -11.207893   0.90458824 
    2500    77.999639    116.01855   -11.207857   0.90456449 
    2600    77.999614    116.01852    -11.20782   0.90454081 
    2700    77.999589    116.01848   -11.207782   0.90451718 
    2800    77.999562    116.01844   -11.207742   0.90449362 
    2900    77.999535     116.0184   -11.207701   0.90447012 
    3000    77.999507    116.01835   -11.207659   0.90444669 
    3100    77.999478    116.01831   -11.207616   0.90442332 
    3200    77.999448    116.01827   -11.207572   0.90440001 
    3300    77.999417    116.01822   -11.207526   0.90437677 
    3400    77.999386    116.01818    -11.20748   0.90435358 
    3500    77.999354    116.01813   -11.207432   0.90433046 
    3600    77.999321    116.01808   -11.207383   0.90430741 
    3700    77.999287    116.01803   -11.207332   0.90428442 
    3800    77.999252    116.01798   -11.207281   0.90426149 
    3900    77.999217    116.01792   -11.207228   0.90423862 
    4000    77.999181    116.01787   -11.207174   0.90421581 
    4100    77.999144    116.01782   -11.207119   0.90419307 
    4200    77.999106    116.01776   -11.207063   0.90417039 
    4300    77.999067     116.0177   -11.207006   0.90414778 
    4400    77.999028    116.01764   -11.206947   0.90412522 
    4500    77.998988    116.01758   -11.206887   0.90410273 
    4600    77.998947    116.01752   -11.206826    0.9040803 
    4700    77.998905    116.01746   -11.206764   0.90405794 
    4800    77.998863     116.0174   -11.206701   0.90403563 
    4900    77.998819    116.01733   -11.206636   0.90401339 
    5000    77.998775    116.01727    -11.20657   0.90399121 
    5100     77.99873     116.0172   -11.206556   0.90396786 
    5200    77.998685    116.01713   -11.206488   0.90394581 
    5300    77.998638    116.01706   -11.206419   0.90392381 
    5400    77.998591    116.01699   -11.206348   0.90390188 
    5500    77.998543    116.01692   -11.206277   0.90388002 
    5600    77.998494    116.01685   -11.206204   0.90385821 
    5700    77.998445    116.01678    -11.20613   0.90383647 
    5800    77.998394     116.0167   -11.206055   0.90381479 
    5900    77.998343    116.01662   -11.205979   0.90379317 
    6000    77.998291    116.01655   -11.205901   0.90377161 
    6100    77.998238    116.01647   -11.205823   0.90375012 
    6200    77.998185    116.01639   -11.205743   0.90372869 
    6300    77.998131    116.01631   -11.205662   0.90370731 
    6400    77.998076    116.01623    -11.20558   0.90368601 
    6500     77.99802    116.01614   -11.205497   0.90366476 
    6600    77.997963    116.01606   -11.205412   0.90364357 
    6700    77.997906    116.01597   -11.205327   0.90362245 
    6800    77.997848    116.01589    -11.20524   0.90360139 
    6900    77.997789     116.0158   -11.205152   0.90358039 
    7000    77.997729    116.01571   -11.205063   0.90355945 
    7100    77.997669    116.01562   -11.204973   0.90353857 
    7200    77.997607    116.01553   -11.204881   0.90351776 
    7300    77.997545    116.01544   -11.204789     0.903497 
    7400    77.997483    116.01534   -11.204695   0.90347631 
    7500    77.997419    116.01525     -11.2046   0.90345568 
    7600    77.997355    116.01515   -11.204504   0.90343511 
    7700     77.99729    116.01506   -11.204407   0.90341461 
    7800    77.997224    116.01496   -11.204308   0.90339416 
    7900    77.997157    116.01486   -11.204209   0.90337377 
    8000     77.99709    116.01476   -11.204108   0.90335345 
    8100    77.997022    116.01466   -11.204007   0.90333319 
    8200    77.996953    116.01456   -11.203904   0.90331299 
    8300    77.996883    116.01445   -11.203799   0.90329285 
    8400    77.996813    116.01435   -11.203694   0.90327277 
    8500    77.996742    116.01424   -11.203588   0.90325275 
    8600     77.99667    116.01414    -11.20348   0.90323279 
    8700    77.996597    116.01403   -11.203372    0.9032129 
    8800    77.996524    116.01392   -11.203262   0.90319306 
    8900    77.996449    116.01381   -11.203151   0.90317329 
    9000    77.996374     116.0137   -11.203039   0.90315358 
    9100    77.996299    116.01358   -11.202926   0.90313392 
    9200    77.996222    116.01347   -11.202811   0.90311433 
    9300    77.996145    116.01335   -11.202696    0.9030948 
    9400    77.996067    116.01324   -11.202579   0.90307533 
    9500    77.995988    116.01312   -11.202461   0.90305593 
    9600    77.995909      116.013   -11.202342   0.90303658 
    9700    77.995829    116.01288   -11.202222   0.90301729 
    9800    77.995748    116.01276   -11.202101   0.90299806 
    9900    77.995666    116.01264   -11.201979    0.9029789 
   10000    77.995583    116.01252   -11.201855   0.90295979 
   10100      77.9955     116.0124    -11.20173   0.90294075 
   10200    77.995416    116.01227   -11.201605   0.90292176 
   10300    77.995331    116.01214   -11.201478   0.90290284 
   10400    77.995246    116.01202    -11.20135   0.90288397 
   10500     77.99516    116.01189   -11.201221   0.90286517 
   10600    77.995073    116.01176    -11.20109   0.90284643 
   10700    77.994985    116.01163   -11.200959   0.90282775 
   10800    77.994897     116.0115   -11.200879   0.90280789 
   10900    77.994808    116.01137   -11.200745   0.90278932 
   11000    77.994718    116.01123    -11.20061   0.90277082 
   11100    77.994627     116.0111   -11.200475   0.90275238 
   11200    77.994536    116.01096   -11.200338     0.902734 
   11300    77.994444    116.01082   -11.200199   0.90271568 
   11400    77.994351    116.01069    -11.20006   0.90269742 
   11500    77.994257    116.01055    -11.19992   0.90267921 
   11600    77.994163    116.01041   -11.199778   0.90266107 
   11700    77.994068    116.01027   -11.199636   0.90264299 
   11800    77.993972    116.01012   -11.199492   0.90262497 
   11900    77.993876    116.00998   -11.199347   0.90260701 
   12000    77.993778    116.00983   -11.199201    0.9025891 
   12100     77.99368    116.00969   -11.199054   0.90257126 
   12200    77.993582    116.00954   -11.198906   0.90255348 
   12300    77.993482    116.00939   -11.198756   0.90253575 
   12400    77.993382    116.00925   -11.198606   0.90251809 
   12500    77.993281     116.0091   -11.198454   0.90250049 
   12600     77.99318    116.00894   -11.198302   0.90248294 
   12700    77.993078    116.00879   -11.198148   0.90246546 
   12800    77.992975    116.00864   -11.197993   0.90244803 
   12900    77.992871    116.00848   -11.197837   0.90243067 
   13000    77.992766    116.00833    -11.19768   0.90241336 
   13100    77.992661    116.00817   -11.197522   0.90239611 
   13200    77.992555    116.00802   -11.197363   0.90237893 
   13300    77.992449    116.00786   -11.197202    0.9023618 
   13400    77.992341     116.0077   -11.197041   0.90234473 
   13500    77.992233    116.00754   -11.196878   0.90232772 
   13600    77.992125    116.00737   -11.196714   0.90231077 
   13700    77.992015    116.00721   -11.196549   0.90229388 
   13800    77.991905    116.00705   -11.196436   0.90227581 
   13900    77.991794    116.00688   -11.196269   0.90225904 
   14000    77.991683    116.00672   -11.196101   0.90224232 
   14100     77.99157    116.00655   -11.195932   0.90222567 
   14200    77.991457    116.00638   -11.195761   0.90220907 
   14300    77.991344    116.00621    -11.19559   0.90219254 
   14400    77.991229    116.00604   -11.195417   0.90217606 
   14500    77.991114    116.00587   -11.195244   0.90215964 
   14600    77.990998     116.0057   -11.195069   0.90214328 
   14700    77.990882    116.00553   -11.194893   0.90212698 
   14800    77.990764    116.00535   -11.194716   0.90211073 
   14900    77.990647    116.00518   -11.194538   0.90209455 
   15000    77.990528      116.005   -11.194359   0.90207842 
   15100    77.990409    116.00482   -11.194179   0.90206236 
   15200    77.990289    116.00464   -11.193998   0.90204635 
   15300    77.990168    116.00446   -11.193816    0.9020304 
   15400    77.990046    116.00428   -11.193632   0.90201451 
   15500    77.989924     116.0041   -11.193448   0.90199868 
   15600    77.989802    116.00392   -11.193262    0.9019829 
   15700    77.989678    116.00374   -11.193076   0.90196719 
   15800    77.989554    116.00355   -11.192888   0.90195153 
   15900    77.989429    116.00337   -11.192699   0.90193593 
   16000    77.989303    116.00318   -11.192509   0.90192039 
   16100    77.989177    116.00299   -11.192318   0.90190491 
   16200     77.98905     116.0028   -11.192126   0.90188949 
   16300    77.988923    116.00261   -11.191933   0.90187412 
   16400    77.988794    116.00242   -11.191739   0.90185881 
   16500    77.988665    116.00223   -11.191543   0.90184356 
   16600    77.988536    116.00204   -11.191347   0.90182837 
   16700    77.988405    116.00184   -11.191149   0.90181324 
   16800    77.988274    116.00165   -11.190951   0.90179816 
   16900    77.988143    116.00145   -11.190751   0.90178315 
   17000     77.98801    116.00125   -11.190551   0.90176819 
   17100    77.987877    116.00106   -11.190349   0.90175329 
   17200    77.987743    116.00086   -11.190146   0.90173844 
   17300    77.987609    116.00066   -11.189942   0.90172366 
   17400    77.987474    116.00046   -11.189737   0.90170893 
   17500    77.987338    116.00025   -11.189531   0.90169426 
   17600    77.987202    116.00005   -11.189324   0.90167965 
   17700    77.987064    115.99985   -11.189116    0.9016651 
   17800    77.986927    115.99964   -11.188907    0.9016506 
   17900    77.986788    115.99944   -11.188696   0.90163616 
   18000    77.986649    115.99923   -11.188485   0.90162178 
   18100    77.986509    115.99902   -11.188272   0.90160745 
   18200    77.986369    115.99881   -11.188059   0.90159319 
   18300    77.986228     115.9986   -11.187844   0.90157898 
   18400    77.986086    115.99839   -11.187629   0.90156483 
   18500    77.985943    115.99818   -11.187412   0.90155073 
   18600      77.9858    115.99797   -11.187194    0.9015367 
   18700    77.985657    115.99775   -11.186975   0.90152272 
   18800    77.985512    115.99754   -11.186756    0.9015088 
   18900    77.985367    115.99732   -11.186535   0.90149493 
   19000    77.985221    115.99711   -11.186313   0.90148112 
   19100    77.985075    115.99689    -11.18609   0.90146737 
   19200    77.984928    115.99667   -11.185866   0.90145368 
   19300     77.98478    115.99645    -11.18564   0.90144004 
   19400    77.984632    115.99623   -11.185414   0.90142647 
   19500    77.984483    115.99601   -11.185187   0.90141294 
   19600    77.984333    115.99579   -11.184959   0.90139948 
   19700    77.984183    115.99556   -11.184729   0.90138607 
   19800    77.984032    115.99534   -11.184499   0.90137272 
   19900     77.98388    115.99511   -11.184268   0.90135943 
   20000    77.983728    115.99489   -11.184035   0.90134619 
   20100    77.983575    115.99466   -11.183802   0.90133301 
   20200    77.983422    115.99443   -11.183567   0.90131988 
   20300    77.983267     115.9942   -11.183331   0.90130682 
   20400    77.983113    115.99397   -11.183095   0.90129381 
   20500    77.982957    115.99374   -11.182857   0.90128085 
   20600    77.982801    115.99351   -11.182618   0.90126796 
   20700    77.982644    115.99327   -11.182378   0.90125512 
   20800    77.982487    115.99304   -11.182138   0.90124233 
   20900    77.982329     115.9928   -11.181896   0.90122961 
   21000     77.98217    115.99257   -11.181653   0.90121694 
   21100    77.982011    115.99233   -11.181409   0.90120432 
   21200    77.981851    115.99209   -11.181164   0.90119176 
   21300     77.98169    115.99185   -11.180918   0.90117926 
   21400    77.981529    115.99162   -11.180671   0.90116682 
   21500    77.981368    115.99137   -11.180423   0.90115443 
   21600    77.981205    115.99113   -11.180173    0.9011421 
   21700    77.981042    115.99089   -11.179923   0.90112982 
   21800    77.980878    115.99065   -11.179672    0.9011176 
   21900    77.980714     115.9904    -11.17942   0.90110544 
   22000    77.980549    115.99016   -11.179166   0.90109333 
   22100    77.980384    115.98991   -11.178912   0.90108128 
   22200    77.980217    115.98966   -11.178657   0.90106928 
   22300    77.980051    115.98942     -11.1784   0.90105734 
   22400    77.979883    115.98917   -11.178143   0.90104546 
   22500    77.979715    115.98892   -11.177885   0.90103363 
   22600    77.979547    115.98867   -11.177625   0.90102186 
   22700    77.979377    115.98841   -11.177365   0.90101014 
   22800    77.979207    115.98816   -11.177103   0.90099848 
   22900    77.979037    115.98791   -11.176841   0.90098688 
   23000    77.978866    115.98765   -11.176577   0.90097533 
   23100    77.978694     115.9874   -11.176313   0.90096384 
   23200    77.978522    115.98714   -11.176047    0.9009524 
   23300    77.978349    115.98688    -11.17578   0.90094102 
   23400    77.978175    115.98663   -11.175513   0.90092969 
   23500    77.978001    115.98637   -11.175244   0.90091842 
   23600    77.977827    115.98611   -11.174975   0.90090721 
   23700    77.977651    115.98585   -11.174704   0.90089605 
   23800    77.977475    115.98559   -11.174432   0.90088494 
   23900    77.977299    115.98532   -11.174159   0.90087389 
   24000    77.977122    115.98506   -11.173886    0.9008629 
   24100    77.976944    115.98479   -11.173611   0.90085196 
   24200    77.976766    115.98453   -11.173335   0.90084108 
   24300    77.976587    115.98426   -11.173058   0.90083025 
   24400    77.976407      115.984   -11.172781   0.90081948 
   24500    77.976227    115.98373   -11.172502   0.90080877 
   24600    77.976046    115.98346   -11.172222    0.9007981 
   24700    77.975865    115.98319   -11.171941    0.9007875 
   24800    77.975683    115.98292    -11.17166   0.90077695 
   24900    77.975501    115.98265   -11.171377   0.90076645 
   25000    77.975318    115.98238   -11.171093   0.90075601 
   25100    77.975134     115.9821   -11.170808   0.90074562 
   25200     77.97495    115.98183   -11.170522   0.90073529 
   25300    77.974765    115.98155   -11.170235   0.90072501 
   25400     77.97458    115.98128   -11.169948   0.90071479 
   25500    77.974394      115.981   -11.169659   0.90070463 
   25600    77.974207    115.98072   -11.169369   0.90069451 
   25700     77.97402    115.98045   -11.169078   0.90068446 
   25800    77.973833    115.98017   -11.168786   0.90067445 
   25900    77.973644    115.97989   -11.168493   0.90066451 
   26000    77.973456    115.97961     -11.1682   0.90065461 
   26100    77.973266    115.97932   -11.167905   0.90064478 
   26200    77.973076    115.97904   -11.167609   0.90063499 
   26300    77.972886    115.97876   -11.167312   0.90062526 
   26400    77.972695    115.97847   -11.167014   0.90061559 
   26500    77.972503    115.97819   -11.166715   0.90060597 
   26600    77.972311     115.9779   -11.166416    0.9005964 
   26700    77.972118    115.97762   -11.166115   0.90058689 
   26800    77.971924    115.97733   -11.165813   0.90057743 
   26900    77.971731    115.97704    -11.16551   0.90056803 
   27000    77.971536    115.97675   -11.165207   0.90055868 
   27100    77.971341    115.97646   -11.164902   0.90054939 
   27200    77.971145    115.97617   -11.164596   0.90054015 
   27300    77.970949    115.97588   -11.164289   0.90053096 
   27400    77.970753    115.97559   -11.163982   0.90052183 
   27500    77.970555    115.97529   -11.163673   0.90051275 
   27600    77.970357      115.975   -11.163363   0.90050373 
   27700    77.970159     115.9747   -11.163053   0.90049476 
   27800     77.96996    115.97441   -11.162741   0.90048584 
   27900    77.969761    115.97411   -11.162428   0.90047698 
   28000    77.969561    115.97381   -11.162115   0.90046817 
   28100     77.96936    115.97351     -11.1618   0.90045942 
   28200    77.969159    115.97322   -11.161484   0.90045072 
   28300    77.968957    115.97292   -11.161168   0.90044207 
   28400    77.968755    115.97261    -11.16085   0.90043348 
   28500    77.968553    115.97231   -11.160532   0.90042494 
   28600    77.968349    115.97201   -11.160212   0.90041645 
   28700    77.968145    115.97171   -11.159892   0.90040802 
   28800    77.967941     115.9714    -11.15957   0.90039965 
   28900    77.967736     115.9711   -11.159248   0.90039132 
   29000    77.967531    115.97079   -11.158925   0.90038305 
   29100    77.967325    115.97049     -11.1586   0.90037483 
   29200    77.967118    115.97018   -11.158275   0.90036667 
   29300    77.966911    115.96987   -11.157949   0.90035856 
   29400    77.966704    115.96956   -11.157621    0.9003505 
   29500    77.966496    115.96925   -11.157293    0.9003425 
   29600    77.966287    115.96894   -11.156964   0.90033455 
   29700    77.966078    115.96863   -11.156634   0.90032665 
   29800    77.965869    115.96832   -11.156303   0.90031881 
   29900    77.965658    115.96801   -11.155971   0.90031102 
   30000    77.965448    115.96769   -11.155638   0.90030328 
   30100    77.965237    115.96738   -11.155303   0.90029559 
   30200    77.965025    115.96707   -11.154968   0.90028796 
   30300    77.964813    115.96675   -11.154633   0.90028038 
   30400      77.9646    115.96643   -11.154296   0.90027286 
   30500    77.964387    115.96612   -11.153958   0.90026539 
   30600    77.964173     115.9658   -11.153619   0.90025797 
   30700    77.963959    115.96548   -11.153279    0.9002506 
   30800    77.963744    115.96516   -11.152938   0.90024329 
   30900    77.963529    115.96484   -11.152597   0.90023603 
   31000    77.963313    115.96452   -11.152254   0.90022882 
   31100    77.963097     115.9642    -11.15191   0.90022167 
   31200     77.96288    115.96388   -11.151566   0.90021456 
   31300    77.962663    115.96355    -11.15122   0.90020751 
   31400    77.962445    115.96323   -11.150874   0.90020052 
   31500    77.962227     115.9629   -11.150526   0.90019357 
   31600    77.962008    115.96258   -11.150178   0.90018668 
   31700    77.961789    115.96225   -11.149829   0.90017984 
   31800    77.961569    115.96193   -11.149478   0.90017305 
   31900    77.961349     115.9616   -11.149127   0.90016632 
   32000    77.961128    115.96127   -11.148775   0.90015964 
   32100    77.960907    115.96094   -11.148422   0.90015301 
