#Step Temp KinEng PotEng Press 
       0           78    116.01909   -11.208446   0.90517611 
     100    77.999995    116.01908   -11.208439   0.90515083 
     200     77.99999    116.01907   -11.208431   0.90512561 
     300    77.999984    116.01906   -11.208422   0.90510046 
     400    77.999977    116.01905   -11.208411   0.90507537 
     500    77.999969    116.01904     -11.2084   0.90505034 
     600     77.99996    116.01903   -11.208387   0.90502538 
     700     77.99995    116.01902   -11.208372   0.90500049 
     800     77.99994      116.019   -11.208305   0.90497689 
     900    77.999929    116.01898   -11.208288   0.90495212 
    1000    77.999917    116.01897    -11.20827   0.90492742 
    1100    77.999904    116.01895   -11.208251   0.90490278 
    1200     77.99989    116.01893   -11.208231    0.9048782 
    1300    77.999876     116.0189   -11.208209   0.90485369 
    1400    77.999861    116.01888   -11.208187   0.90482924 
    1500    77.999845    116.01886   -11.208163   0.90480485 
    1600    77.999828    116.01883   -11.208138   0.90478053 
    1700     77.99981    116.01881   -11.208111   0.90475627 
    1800    77.999792    116.01878   -11.208084   0.90473208 
    1900    77.999772    116.01875   -11.208055   0.90470795 
    2000    77.999752    116.01872   -11.208025   0.90468388 
    2100    77.999731    116.01869   -11.207994   0.90465987 
    2200     77.99971    116.01866   -11.207962   0.90463593 
    2300    77.999687    116.01862   -11.207928   0.90461206 
    2400    77.999664    116.01859   -11.207893   0.90458824 
    2500    77.999639    116.01855   -11.207857   0.90456449 
    2600    77.999615    116.01852    -11.20782   0.90454081 
    2700    77.999589    116.01848   -11.207782   0.90451718 
    2800    77.999562    116.01844   -11.207742   0.90449362 
    2900    77.999535     116.0184   -11.207701   0.90447012 
    3000    77.999507    116.01835   -11.207659   0.90444669 
    3100    77.999478    116.01831   -11.207616   0.90442332 
    3200    77.999448    116.01827   -11.207572   0.90440001 
    3300    77.999417    116.01822   -11.207526   0.90437677 
    3400    77.999386    116.01818    -11.20748   0.90435359 
    3500    77.999354    116.01813   -11.207432   0.90433047 
    3600    77.999321    116.01808   -11.207383   0.90430741 
    3700    77.999287    116.01803   -11.207332   0.90428442 
    3800    77.999252    116.01798   -11.207281   0.90426149 
    3900    77.999217    116.01792   -11.207228   0.90423862 
    4000    77.999181    116.01787   -11.207174   0.90421582 
    4100    77.999144    116.01782   -11.207119   0.90419307 
    4200    77.999106    116.01776   -11.207063    0.9041704 
    4300    77.999068     116.0177   -11.207006   0.90414778 
    4400    77.999028    116.01764   -11.206947   0.90412523 
    4500    77.998988    116.01758   -11.206887   0.90410274 
    4600    77.998947    116.01752   -11.206826   0.90408031 
    4700    77.998906    116.01746   -11.206764   0.90405794 
    4800    77.998863     116.0174   -11.206701   0.90403564 
    4900     77.99882    116.01733   -11.206636    0.9040134 
    5000    77.998776    116.01727    -11.20657   0.90399122 
    5100    77.998731     116.0172   -11.206556   0.90396787 
    5200    77.998685    116.01713   -11.206488   0.90394581 
    5300    77.998639    116.01706   -11.206419   0.90392382 
    5400    77.998592    116.01699   -11.206348   0.90390189 
    5500    77.998544    116.01692   -11.206277   0.90388003 
    5600    77.998495    116.01685   -11.206204   0.90385822 
    5700    77.998446    116.01678    -11.20613   0.90383648 
    5800    77.998395     116.0167   -11.206055    0.9038148 
    5900    77.998344    116.01663   -11.205979   0.90379318 
    6000    77.998292    116.01655   -11.205901   0.90377163 
    6100     77.99824    116.01647   -11.205823   0.90375013 
    6200    77.998186    116.01639   -11.205743    0.9037287 
    6300    77.998132    116.01631   -11.205662   0.90370733 
    6400    77.998077    116.01623    -11.20558   0.90368602 
    6500    77.998021    116.01615   -11.205497   0.90366478 
    6600    77.997965    116.01606   -11.205412   0.90364359 
    6700    77.997908    116.01598   -11.205327   0.90362247 
    6800     77.99785    116.01589    -11.20524   0.90360141 
    6900    77.997791     116.0158   -11.205152   0.90358041 
    7000    77.997731    116.01571   -11.205063   0.90355947 
    7100    77.997671    116.01562   -11.204973    0.9035386 
    7200     77.99761    116.01553   -11.204881   0.90351779 
    7300    77.997548    116.01544   -11.204789   0.90349703 
    7400    77.997485    116.01535   -11.204695   0.90347634 
    7500    77.997422    116.01525     -11.2046   0.90345571 
    7600    77.997358    116.01516   -11.204504   0.90343515 
    7700    77.997293    116.01506   -11.204407   0.90341464 
    7800    77.997227    116.01496   -11.204308    0.9033942 
    7900    77.997161    116.01487   -11.204209   0.90337381 
    8000    77.997093    116.01477   -11.204108   0.90335349 
    8100    77.997025    116.01466   -11.204007   0.90333323 
    8200    77.996957    116.01456   -11.203904   0.90331303 
    8300    77.996887    116.01446   -11.203799   0.90329289 
    8400    77.996817    116.01435   -11.203694   0.90327282 
    8500    77.996746    116.01425   -11.203588    0.9032528 
    8600    77.996674    116.01414    -11.20348   0.90323285 
    8700    77.996602    116.01403   -11.203372   0.90321295 
    8800    77.996529    116.01393   -11.203262   0.90319312 
    8900    77.996455    116.01382   -11.203151   0.90317335 
    9000     77.99638     116.0137   -11.203039   0.90315364 
    9100    77.996304    116.01359   -11.202926   0.90313399 
    9200    77.996228    116.01348   -11.202811    0.9031144 
    9300    77.996151    116.01336   -11.202696   0.90309488 
    9400    77.996073    116.01325   -11.202579   0.90307541 
    9500    77.995995    116.01313   -11.202461     0.903056 
    9600    77.995916    116.01301   -11.202342   0.90303666 
    9700    77.995836    116.01289   -11.202222   0.90301738 
    9800    77.995755    116.01277   -11.202101   0.90299815 
    9900    77.995674    116.01265   -11.201979   0.90297899 
   10000    77.995592    116.01253   -11.201855   0.90295989 
   10100    77.995509    116.01241    -11.20173   0.90294085 
   10200    77.995425    116.01228   -11.201605   0.90292187 
   10300    77.995341    116.01216   -11.201478   0.90290295 
   10400    77.995255    116.01203    -11.20135   0.90288409 
   10500     77.99517     116.0119   -11.201221   0.90286529 
   10600    77.995083    116.01178    -11.20109   0.90284655 
   10700    77.994996    116.01165   -11.200959   0.90282787 
   10800    77.994908    116.01151   -11.200879   0.90280802 
   10900    77.994819    116.01138   -11.200745   0.90278946 
   11000    77.994729    116.01125    -11.20061   0.90277096 
   11100    77.994639    116.01112   -11.200475   0.90275252 
   11200    77.994548    116.01098   -11.200338   0.90273415 
   11300    77.994457    116.01084   -11.200199   0.90271583 
   11400    77.994364    116.01071    -11.20006   0.90269757 
   11500    77.994271    116.01057    -11.19992   0.90267938 
   11600    77.994177    116.01043   -11.199778   0.90266124 
   11700    77.994083    116.01029   -11.199636   0.90264316 
   11800    77.993988    116.01015   -11.199492   0.90262515 
   11900    77.993892       116.01   -11.199347   0.90260719 
   12000    77.993795    116.00986   -11.199201    0.9025893 
   12100    77.993697    116.00971   -11.199054   0.90257146 
   12200    77.993599    116.00957   -11.198906   0.90255368 
   12300    77.993501    116.00942   -11.198756   0.90253597 
   12400    77.993401    116.00927   -11.198606   0.90251831 
   12500    77.993301    116.00912   -11.198454   0.90250071 
   12600      77.9932    116.00897   -11.198302   0.90248317 
   12700    77.993098    116.00882   -11.198148    0.9024657 
   12800    77.992996    116.00867   -11.197993   0.90244828 
   12900    77.992893    116.00852   -11.197837   0.90243092 
   13000    77.992789    116.00836    -11.19768   0.90241362 
   13100    77.992684    116.00821   -11.197522   0.90239638 
   13200    77.992579    116.00805   -11.197363    0.9023792 
   13300    77.992473    116.00789   -11.197202   0.90236208 
   13400    77.992367    116.00773   -11.197041   0.90234502 
   13500    77.992259    116.00757   -11.196878   0.90232802 
   13600    77.992151    116.00741   -11.196714   0.90231108 
   13700    77.992043    116.00725   -11.196549    0.9022942 
   13800    77.991933    116.00709   -11.196436   0.90227614 
   13900    77.991823    116.00693   -11.196269   0.90225938 
   14000    77.991712    116.00676   -11.196101   0.90224267 
   14100    77.991601     116.0066   -11.195932   0.90222603 
   14200    77.991489    116.00643   -11.195761   0.90220944 
   14300    77.991376    116.00626    -11.19559   0.90219291 
   14400    77.991262    116.00609   -11.195417   0.90217645 
   14500    77.991148    116.00592   -11.195244   0.90216004 
   14600    77.991033    116.00575   -11.195069   0.90214369 
   14700    77.990918    116.00558   -11.194893    0.9021274 
   14800    77.990801    116.00541   -11.194716   0.90211117 
   14900    77.990684    116.00523   -11.194538   0.90209499 
   15000    77.990567    116.00506   -11.194359   0.90207888 
   15100    77.990448    116.00488   -11.194179   0.90206282 
   15200     77.99033     116.0047   -11.193998   0.90204683 
   15300     77.99021    116.00453   -11.193816   0.90203089 
   15400     77.99009    116.00435   -11.193632   0.90201501 
   15500    77.989968    116.00417   -11.193448   0.90199919 
   15600    77.989847    116.00399   -11.193262   0.90198343 
   15700    77.989724     116.0038   -11.193076   0.90196773 
   15800    77.989601    116.00362   -11.192888   0.90195209 
   15900    77.989478    116.00344   -11.192699    0.9019365 
   16000    77.989353    116.00325   -11.192509   0.90192098 
   16100    77.989228    116.00307   -11.192318   0.90190551 
   16200    77.989103    116.00288   -11.192126    0.9018901 
   16300    77.988976    116.00269   -11.191933   0.90187475 
   16400    77.988849     116.0025   -11.191739   0.90185946 
   16500    77.988722    116.00231   -11.191543   0.90184422 
   16600    77.988593    116.00212   -11.191347   0.90182905 
   16700    77.988464    116.00193   -11.191149   0.90181393 
   16800    77.988335    116.00174   -11.190951   0.90179887 
   16900    77.988204    116.00154   -11.190751   0.90178387 
   17000    77.988073    116.00135   -11.190551   0.90176893 
   17100    77.987942    116.00115   -11.190349   0.90175404 
   17200    77.987809    116.00096   -11.190146   0.90173922 
   17300    77.987677    116.00076   -11.189942   0.90172445 
   17400    77.987543    116.00056   -11.189737   0.90170974 
   17500    77.987409    116.00036   -11.189531   0.90169509 
   17600    77.987274    116.00016   -11.189324    0.9016805 
   17700    77.987138    115.99996   -11.189116   0.90166596 
   17800    77.987002    115.99976   -11.188907   0.90165148 
   17900    77.986865    115.99955   -11.188696   0.90163706 
   18000    77.986728    115.99935   -11.188485    0.9016227 
   18100     77.98659    115.99914   -11.188272    0.9016084 
   18200    77.986451    115.99894   -11.188059   0.90159415 
   18300    77.986312    115.99873   -11.187844   0.90157996 
   18400    77.986172    115.99852   -11.187629   0.90156583 
   18500    77.986031    115.99831   -11.187412   0.90155176 
   18600     77.98589     115.9981   -11.187194   0.90153775 
   18700    77.985748    115.99789   -11.186975   0.90152379 
   18800    77.985606    115.99768   -11.186756   0.90150989 
   18900    77.985463    115.99747   -11.186535   0.90149605 
   19000    77.985319    115.99725   -11.186313   0.90148226 
   19100    77.985174    115.99704    -11.18609   0.90146854 
   19200    77.985029    115.99682   -11.185866   0.90145487 
   19300    77.984884     115.9966    -11.18564   0.90144126 
   19400    77.984738    115.99639   -11.185414    0.9014277 
   19500    77.984591    115.99617   -11.185187    0.9014142 
   19600    77.984443    115.99595   -11.184959   0.90140076 
   19700    77.984295    115.99573   -11.184729   0.90138738 
   19800    77.984146    115.99551   -11.184499   0.90137406 
   19900    77.983997    115.99529   -11.184268   0.90136079 
   20000    77.983847    115.99506   -11.184035   0.90134758 
   20100    77.983697    115.99484   -11.183802   0.90133443 
   20200    77.983545    115.99461   -11.183567   0.90132133 
   20300    77.983394    115.99439   -11.183331   0.90130829 
   20400    77.983241    115.99416   -11.183095   0.90129531 
   20500    77.983088    115.99393   -11.182857   0.90128239 
   20600    77.982935    115.99371   -11.182618   0.90126952 
   20700     77.98278    115.99348   -11.182378   0.90125671 
   20800    77.982626    115.99325   -11.182137   0.90124396 
   20900     77.98247    115.99301   -11.181896   0.90123126 
   21000    77.982314    115.99278   -11.181653   0.90121862 
   21100    77.982158    115.99255   -11.181409   0.90120604 
   21200    77.982001    115.99232   -11.181164   0.90119351 
   21300    77.981843    115.99208   -11.180918   0.90118104 
   21400    77.981684    115.99185   -11.180671   0.90116863 
   21500    77.981525    115.99161   -11.180422   0.90115627 
   21600    77.981366    115.99137   -11.180173   0.90114398 
   21700    77.981206    115.99113   -11.179923   0.90113173 
   21800    77.981045    115.99089   -11.179672   0.90111955 
   21900    77.980884    115.99065    -11.17942   0.90110742 
   22000    77.980722    115.99041   -11.179166   0.90109535 
   22100     77.98056    115.99017   -11.178912   0.90108333 
   22200    77.980396    115.98993   -11.178657   0.90107137 
   22300    77.980233    115.98969     -11.1784   0.90105947 
   22400    77.980069    115.98944   -11.178143   0.90104762 
   22500    77.979904     115.9892   -11.177885   0.90103583 
   22600    77.979739    115.98895   -11.177625    0.9010241 
   22700    77.979573     115.9887   -11.177365   0.90101243 
   22800    77.979406    115.98846   -11.177103    0.9010008 
   22900    77.979239    115.98821   -11.176841   0.90098924 
   23000    77.979072    115.98796   -11.176577   0.90097773 
   23100    77.978903    115.98771   -11.176313   0.90096628 
   23200    77.978735    115.98746   -11.176047   0.90095489 
   23300    77.978565    115.98721    -11.17578   0.90094355 
   23400    77.978396    115.98695   -11.175513   0.90093226 
   23500    77.978225     115.9867   -11.175244   0.90092104 
   23600    77.978054    115.98645   -11.174975   0.90090987 
   23700    77.977883    115.98619   -11.174704   0.90089875 
   23800    77.977711    115.98594   -11.174432   0.90088769 
   23900    77.977538    115.98568   -11.174159   0.90087669 
   24000    77.977365    115.98542   -11.173886   0.90086574 
   24100    77.977191    115.98516   -11.173611   0.90085485 
   24200    77.977017     115.9849   -11.173335   0.90084402 
   24300    77.976842    115.98464   -11.173058   0.90083324 
   24400    77.976667    115.98438   -11.172781   0.90082251 
   24500    77.976491    115.98412   -11.172502   0.90081185 
   24600    77.976314    115.98386   -11.172222   0.90080123 
   24700    77.976137    115.98359   -11.171941   0.90079068 
   24800     77.97596    115.98333    -11.17166   0.90078018 
   24900    77.975782    115.98307   -11.171377   0.90076973 
   25000    77.975603     115.9828   -11.171093   0.90075934 
   25100    77.975424    115.98253   -11.170808   0.90074901 
   25200    77.975244    115.98227   -11.170522   0.90073873 
   25300    77.975064      115.982   -11.170235   0.90072851 
   25400    77.974884    115.98173   -11.169948   0.90071834 
   25500    77.974702    115.98146   -11.169659   0.90070823 
   25600    77.974521    115.98119   -11.169369   0.90069818 
   25700    77.974338    115.98092   -11.169078   0.90068818 
   25800    77.974156    115.98065   -11.168786   0.90067823 
   25900    77.973972    115.98037   -11.168493   0.90066834 
   26000    77.973789     115.9801     -11.1682   0.90065851 
   26100    77.973604    115.97983   -11.167905   0.90064873 
   26200    77.973419    115.97955   -11.167609     0.900639 
   26300    77.973234    115.97928   -11.167312   0.90062933 
   26400    77.973048      115.979   -11.167014   0.90061972 
   26500    77.972862    115.97872   -11.166715   0.90061016 
   26600    77.972675    115.97844   -11.166416   0.90060066 
   26700    77.972488    115.97817   -11.166115   0.90059121 
   26800      77.9723    115.97789   -11.165813   0.90058182 
   26900    77.972111    115.97761    -11.16551   0.90057248 
   27000    77.971922    115.97733   -11.165206    0.9005632 
   27100    77.971733    115.97704   -11.164902   0.90055397 
   27200    77.971543    115.97676   -11.164596   0.90054479 
   27300    77.971353    115.97648   -11.164289   0.90053568 
   27400    77.971162    115.97619   -11.163982   0.90052661 
   27500    77.970971    115.97591   -11.163673    0.9005176 
   27600    77.970779    115.97562   -11.163363   0.90050865 
   27700    77.970586    115.97534   -11.163052   0.90049975 
   27800    77.970394    115.97505   -11.162741   0.90049091 
   27900      77.9702    115.97476   -11.162428   0.90048212 
   28000    77.970007    115.97448   -11.162115   0.90047338 
   28100    77.969812    115.97419     -11.1618    0.9004647 
   28200    77.969618     115.9739   -11.161484   0.90045608 
   28300    77.969422    115.97361   -11.161168   0.90044751 
   28400    77.969227    115.97332    -11.16085   0.90043899 
   28500    77.969031    115.97302   -11.160532   0.90043053 
   28600    77.968834    115.97273   -11.160212   0.90042212 
   28700    77.968637    115.97244   -11.159892   0.90041377 
   28800    77.968439    115.97214    -11.15957   0.90040547 
   28900    77.968241    115.97185   -11.159248   0.90039723 
   29000    77.968043    115.97156   -11.158925   0.90038904 
   29100    77.967844    115.97126     -11.1586    0.9003809 
   29200    77.967645    115.97096   -11.158275   0.90037282 
   29300    77.967445    115.97067   -11.157949   0.90036479 
   29400    77.967245    115.97037   -11.157621   0.90035682 
   29500    77.967044    115.97007   -11.157293    0.9003489 
   29600    77.966843    115.96977   -11.156964   0.90034104 
   29700    77.966641    115.96947   -11.156634   0.90033323 
   29800    77.966439    115.96917   -11.156303   0.90032547 
   29900    77.966236    115.96887    -11.15597   0.90031777 
   30000    77.966033    115.96857   -11.155637   0.90031012 
   30100     77.96583    115.96826   -11.155303   0.90030253 
   30200    77.965626    115.96796   -11.154968   0.90029499 
   30300    77.965422    115.96766   -11.154632   0.90028751 
   30400    77.965217    115.96735   -11.154296   0.90028007 
   30500    77.965012    115.96705   -11.153958    0.9002727 
   30600    77.964806    115.96674   -11.153619   0.90026537 
   30700      77.9646    115.96643   -11.153279    0.9002581 
   30800    77.964394    115.96613   -11.152938   0.90025089 
   30900    77.964187    115.96582   -11.152597   0.90024372 
   31000     77.96398    115.96551   -11.152254   0.90023661 
   31100    77.963772     115.9652    -11.15191   0.90022956 
   31200    77.963564    115.96489   -11.151566   0.90022256 
   31300    77.963355    115.96458    -11.15122   0.90021561 
   31400    77.963146    115.96427   -11.150874   0.90020872 
   31500    77.962937    115.96396   -11.150526   0.90020188 
   31600    77.962727    115.96365   -11.150178   0.90019509 
   31700    77.962517    115.96334   -11.149828   0.90018836 
   31800    77.962307    115.96302   -11.149478   0.90018168 
   31900    77.962096    115.96271   -11.149127   0.90017505 
   32000    77.961884    115.96239   -11.148775   0.90016848 
   32100    77.961672    115.96208   -11.148422   0.90016196 
