#Step Temp KinEng PotEng Press 
       0           78    116.01909   -11.208446   0.90517611 
     100    77.999995    116.01908   -11.208439   0.90515083 
     200     77.99999    116.01907   -11.208431   0.90512561 
     300    77.999984    116.01906   -11.208422   0.90510046 
     400    77.999977    116.01905   -11.208411   0.90507537 
     500    77.999969    116.01904     -11.2084   0.90505034 
     600     77.99996    116.01903   -11.208387   0.90502538 
     700     77.99995    116.01902   -11.208372   0.90500049 
     800     77.99994      116.019   -11.208305   0.90497689 
     900    77.999929    116.01898   -11.208288   0.90495212 
    1000    77.999917    116.01897    -11.20827   0.90492742 
    1100    77.999904    116.01895   -11.208251   0.90490278 
    1200     77.99989    116.01893   -11.208231    0.9048782 
    1300    77.999876     116.0189   -11.208209   0.90485369 
    1400    77.999861    116.01888   -11.208187   0.90482924 
    1500    77.999845    116.01886   -11.208163   0.90480485 
    1600    77.999828    116.01883   -11.208138   0.90478053 
    1700     77.99981    116.01881   -11.208111   0.90475627 
    1800    77.999792    116.01878   -11.208084   0.90473208 
    1900    77.999772    116.01875   -11.208055   0.90470795 
    2000    77.999752    116.01872   -11.208025   0.90468388 
    2100    77.999731    116.01869   -11.207994   0.90465987 
    2200     77.99971    116.01866   -11.207962   0.90463593 
    2300    77.999687    116.01862   -11.207928   0.90461206 
    2400    77.999664    116.01859   -11.207893   0.90458824 
    2500    77.999639    116.01855   -11.207857   0.90456449 
    2600    77.999615    116.01852    -11.20782   0.90454081 
    2700    77.999589    116.01848   -11.207782   0.90451718 
    2800    77.999562    116.01844   -11.207742   0.90449362 
    2900    77.999535     116.0184   -11.207701   0.90447012 
    3000    77.999507    116.01835   -11.207659   0.90444669 
    3100    77.999478    116.01831   -11.207616   0.90442332 
    3200    77.999448    116.01827   -11.207572   0.90440001 
    3300    77.999417    116.01822   -11.207526   0.90437677 
    3400    77.999386    116.01818    -11.20748   0.90435358 
    3500    77.999354    116.01813   -11.207432   0.90433047 
    3600    77.999321    116.01808   -11.207383   0.90430741 
    3700    77.999287    116.01803   -11.207332   0.90428442 
    3800    77.999252    116.01798   -11.207281   0.90426149 
    3900    77.999217    116.01792   -11.207228   0.90423862 
    4000    77.999181    116.01787   -11.207174   0.90421582 
    4100    77.999144    116.01782   -11.207119   0.90419307 
    4200    77.999106    116.01776   -11.207063   0.90417039 
    4300    77.999068     116.0177   -11.207006   0.90414778 
    4400    77.999028    116.01764   -11.206947   0.90412522 
    4500    77.998988    116.01758   -11.206887   0.90410273 
    4600    77.998947    116.01752   -11.206826   0.90408031 
    4700    77.998906    116.01746   -11.206764   0.90405794 
    4800    77.998863     116.0174   -11.206701   0.90403564 
    4900     77.99882    116.01733   -11.206636    0.9040134 
    5000    77.998776    116.01727    -11.20657   0.90399122 
    5100    77.998731     116.0172   -11.206556   0.90396786 
    5200    77.998685    116.01713   -11.206488   0.90394581 
    5300    77.998639    116.01706   -11.206419   0.90392382 
    5400    77.998592    116.01699   -11.206348   0.90390189 
    5500    77.998544    116.01692   -11.206277   0.90388002 
    5600    77.998495    116.01685   -11.206204   0.90385822 
    5700    77.998445    116.01678    -11.20613   0.90383648 
    5800    77.998395     116.0167   -11.206055    0.9038148 
    5900    77.998344    116.01663   -11.205979   0.90379318 
    6000    77.998292    116.01655   -11.205901   0.90377162 
    6100    77.998239    116.01647   -11.205823   0.90375013 
    6200    77.998186    116.01639   -11.205743   0.90372869 
    6300    77.998132    116.01631   -11.205662   0.90370732 
    6400    77.998077    116.01623    -11.20558   0.90368602 
    6500    77.998021    116.01614   -11.205497   0.90366477 
    6600    77.997964    116.01606   -11.205412   0.90364359 
    6700    77.997907    116.01598   -11.205327   0.90362246 
    6800    77.997849    116.01589    -11.20524    0.9036014 
    6900     77.99779     116.0158   -11.205152    0.9035804 
    7000     77.99773    116.01571   -11.205063   0.90355946 
    7100     77.99767    116.01562   -11.204973   0.90353859 
    7200    77.997609    116.01553   -11.204881   0.90351777 
    7300    77.997547    116.01544   -11.204789   0.90349702 
    7400    77.997484    116.01535   -11.204695   0.90347633 
    7500    77.997421    116.01525     -11.2046    0.9034557 
    7600    77.997357    116.01516   -11.204504   0.90343513 
    7700    77.997292    116.01506   -11.204407   0.90341463 
    7800    77.997226    116.01496   -11.204308   0.90339418 
    7900    77.997159    116.01486   -11.204209    0.9033738 
    8000    77.997092    116.01476   -11.204108   0.90335347 
    8100    77.997024    116.01466   -11.204007   0.90333321 
    8200    77.996955    116.01456   -11.203904   0.90331301 
    8300    77.996886    116.01446   -11.203799   0.90329287 
    8400    77.996815    116.01435   -11.203694    0.9032728 
    8500    77.996744    116.01425   -11.203588   0.90325278 
    8600    77.996672    116.01414    -11.20348   0.90323283 
    8700      77.9966    116.01403   -11.203372   0.90321293 
    8800    77.996526    116.01392   -11.203262    0.9031931 
    8900    77.996452    116.01381   -11.203151   0.90317333 
    9000    77.996378     116.0137   -11.203039   0.90315361 
    9100    77.996302    116.01359   -11.202926   0.90313396 
    9200    77.996226    116.01347   -11.202811   0.90311437 
    9300    77.996149    116.01336   -11.202696   0.90309485 
    9400    77.996071    116.01324   -11.202579   0.90307538 
    9500    77.995992    116.01313   -11.202461   0.90305597 
    9600    77.995913    116.01301   -11.202342   0.90303663 
    9700    77.995833    116.01289   -11.202222   0.90301734 
    9800    77.995752    116.01277   -11.202101   0.90299812 
    9900     77.99567    116.01265   -11.201979   0.90297895 
   10000    77.995588    116.01253   -11.201855   0.90295985 
   10100    77.995505     116.0124    -11.20173   0.90294081 
   10200    77.995421    116.01228   -11.201605   0.90292182 
   10300    77.995337    116.01215   -11.201478    0.9029029 
   10400    77.995252    116.01203    -11.20135   0.90288404 
   10500    77.995166     116.0119   -11.201221   0.90286524 
   10600    77.995079    116.01177    -11.20109    0.9028465 
   10700    77.994991    116.01164   -11.200959   0.90282782 
   10800    77.994903    116.01151   -11.200879   0.90280796 
   10900    77.994814    116.01138   -11.200745    0.9027894 
   11000    77.994725    116.01124    -11.20061    0.9027709 
   11100    77.994634    116.01111   -11.200475   0.90275246 
   11200    77.994543    116.01097   -11.200338   0.90273409 
   11300    77.994451    116.01084   -11.200199   0.90271577 
   11400    77.994359     116.0107    -11.20006   0.90269751 
   11500    77.994265    116.01056    -11.19992   0.90267931 
   11600    77.994171    116.01042   -11.199778   0.90266117 
   11700    77.994077    116.01028   -11.199636   0.90264309 
   11800    77.993981    116.01014   -11.199492   0.90262507 
   11900    77.993885    116.00999   -11.199347   0.90260712 
   12000    77.993788    116.00985   -11.199201   0.90258922 
   12100     77.99369     116.0097   -11.199054   0.90257138 
   12200    77.993592    116.00956   -11.198906    0.9025536 
   12300    77.993493    116.00941   -11.198756   0.90253588 
   12400    77.993393    116.00926   -11.198606   0.90251822 
   12500    77.993293    116.00911   -11.198454   0.90250062 
   12600    77.993192    116.00896   -11.198302   0.90248308 
   12700     77.99309    116.00881   -11.198148    0.9024656 
   12800    77.992987    116.00866   -11.197993   0.90244818 
   12900    77.992884     116.0085   -11.197837   0.90243082 
   13000     77.99278    116.00835    -11.19768   0.90241352 
   13100    77.992675    116.00819   -11.197522   0.90239627 
   13200    77.992569    116.00804   -11.197363   0.90237909 
   13300    77.992463    116.00788   -11.197202   0.90236197 
   13400    77.992356    116.00772   -11.197041    0.9023449 
   13500    77.992249    116.00756   -11.196878    0.9023279 
   13600     77.99214     116.0074   -11.196714   0.90231095 
   13700    77.992031    116.00724   -11.196549   0.90229407 
   13800    77.991922    116.00707   -11.196436     0.902276 
   13900    77.991811    116.00691   -11.196269   0.90225924 
   14000      77.9917    116.00674   -11.196101   0.90224253 
   14100    77.991588    116.00658   -11.195932   0.90222588 
   14200    77.991476    116.00641   -11.195761   0.90220929 
   14300    77.991363    116.00624    -11.19559   0.90219276 
   14400    77.991249    116.00607   -11.195417   0.90217629 
   14500    77.991134     116.0059   -11.195244   0.90215987 
   14600    77.991019    116.00573   -11.195069   0.90214352 
   14700    77.990903    116.00556   -11.194893   0.90212722 
   14800    77.990786    116.00538   -11.194716   0.90211099 
   14900    77.990669    116.00521   -11.194538   0.90209481 
   15000    77.990551    116.00503   -11.194359   0.90207869 
   15100    77.990432    116.00486   -11.194179   0.90206263 
   15200    77.990313    116.00468   -11.193998   0.90204663 
   15300    77.990193     116.0045   -11.193816   0.90203069 
   15400    77.990072    116.00432   -11.193632   0.90201481 
   15500     77.98995    116.00414   -11.193448   0.90199898 
   15600    77.989828    116.00396   -11.193262   0.90198321 
   15700    77.989705    116.00378   -11.193076   0.90196751 
   15800    77.989582    116.00359   -11.192888   0.90195186 
   15900    77.989458    116.00341   -11.192699   0.90193627 
   16000    77.989333    116.00322   -11.192509   0.90192074 
   16100    77.989207    116.00304   -11.192318   0.90190526 
   16200    77.989081    116.00285   -11.192126   0.90188985 
   16300    77.988954    116.00266   -11.191933   0.90187449 
   16400    77.988827    116.00247   -11.191739   0.90185919 
   16500    77.988698    116.00228   -11.191543   0.90184395 
   16600     77.98857    116.00209   -11.191347   0.90182877 
   16700     77.98844    116.00189   -11.191149   0.90181365 
   16800     77.98831     116.0017   -11.190951   0.90179858 
   16900    77.988179    116.00151   -11.190751   0.90178357 
   17000    77.988047    116.00131   -11.190551   0.90176862 
   17100    77.987915    116.00111   -11.190349   0.90175373 
   17200    77.987782    116.00092   -11.190146    0.9017389 
   17300    77.987649    116.00072   -11.189942   0.90172412 
   17400    77.987515    116.00052   -11.189737   0.90170941 
   17500     77.98738    116.00032   -11.189531   0.90169475 
   17600    77.987244    116.00012   -11.189324   0.90168015 
   17700    77.987108    115.99991   -11.189116    0.9016656 
   17800    77.986971    115.99971   -11.188907   0.90165112 
   17900    77.986834     115.9995   -11.188696   0.90163669 
   18000    77.986696     115.9993   -11.188485   0.90162232 
   18100    77.986557    115.99909   -11.188272   0.90160801 
   18200    77.986417    115.99889   -11.188059   0.90159375 
   18300    77.986277    115.99868   -11.187844   0.90157956 
   18400    77.986137    115.99847   -11.187629   0.90156542 
   18500    77.985995    115.99826   -11.187412   0.90155134 
   18600    77.985853    115.99805   -11.187194   0.90153731 
   18700    77.985711    115.99783   -11.186975   0.90152335 
   18800    77.985567    115.99762   -11.186756   0.90150944 
   18900    77.985423    115.99741   -11.186535   0.90149559 
   19000    77.985279    115.99719   -11.186313   0.90148179 
   19100    77.985133    115.99698    -11.18609   0.90146806 
   19200    77.984988    115.99676   -11.185866   0.90145438 
   19300    77.984841    115.99654    -11.18564   0.90144076 
   19400    77.984694    115.99632   -11.185414   0.90142719 
   19500    77.984546     115.9961   -11.185187   0.90141369 
   19600    77.984398    115.99588   -11.184959   0.90140024 
   19700    77.984249    115.99566   -11.184729   0.90138684 
   19800    77.984099    115.99544   -11.184499   0.90137351 
   19900    77.983949    115.99521   -11.184268   0.90136023 
   20000    77.983798    115.99499   -11.184035   0.90134701 
   20100    77.983647    115.99476   -11.183802   0.90133384 
   20200    77.983494    115.99454   -11.183567   0.90132074 
   20300    77.983342    115.99431   -11.183331   0.90130769 
   20400    77.983188    115.99408   -11.183095   0.90129469 
   20500    77.983034    115.99385   -11.182857   0.90128176 
   20600     77.98288    115.99362   -11.182618   0.90126888 
   20700    77.982724    115.99339   -11.182378   0.90125605 
   20800    77.982569    115.99316   -11.182137   0.90124329 
   20900    77.982412    115.99293   -11.181896   0.90123058 
   21000    77.982255    115.99269   -11.181653   0.90121793 
   21100    77.982097    115.99246   -11.181409   0.90120533 
   21200    77.981939    115.99222   -11.181164   0.90119279 
   21300     77.98178    115.99199   -11.180918   0.90118031 
   21400    77.981621    115.99175   -11.180671   0.90116788 
   21500     77.98146    115.99151   -11.180422   0.90115551 
   21600      77.9813    115.99127   -11.180173    0.9011432 
   21700    77.981138    115.99103   -11.179923   0.90113095 
   21800    77.980976    115.99079   -11.179672   0.90111875 
   21900    77.980814    115.99055    -11.17942    0.9011066 
   22000    77.980651    115.99031   -11.179166   0.90109452 
   22100    77.980487    115.99006   -11.178912   0.90108249 
   22200    77.980323    115.98982   -11.178657   0.90107051 
   22300    77.980158    115.98958     -11.1784   0.90105859 
   22400    77.979992    115.98933   -11.178143   0.90104673 
   22500    77.979826    115.98908   -11.177885   0.90103493 
   22600     77.97966    115.98883   -11.177625   0.90102318 
   22700    77.979492    115.98859   -11.177365   0.90101148 
   22800    77.979324    115.98834   -11.177103   0.90099985 
   22900    77.979156    115.98808   -11.176841   0.90098827 
   23000    77.978987    115.98783   -11.176577   0.90097674 
   23100    77.978817    115.98758   -11.176313   0.90096527 
   23200    77.978647    115.98733   -11.176047   0.90095386 
   23300    77.978476    115.98707    -11.17578    0.9009425 
   23400    77.978305    115.98682   -11.175513    0.9009312 
   23500    77.978133    115.98656   -11.175244   0.90091996 
   23600     77.97796    115.98631   -11.174975   0.90090877 
   23700    77.977787    115.98605   -11.174704   0.90089764 
   23800    77.977614    115.98579   -11.174432   0.90088656 
   23900    77.977439    115.98553   -11.174159   0.90087554 
   24000    77.977265    115.98527   -11.173886   0.90086457 
   24100    77.977089    115.98501   -11.173611   0.90085366 
   24200    77.976913    115.98475   -11.173335   0.90084281 
   24300    77.976737    115.98449   -11.173058   0.90083201 
   24400     77.97656    115.98422   -11.172781   0.90082126 
   24500    77.976382    115.98396   -11.172502   0.90081058 
   24600    77.976204    115.98369   -11.172222   0.90079994 
   24700    77.976025    115.98343   -11.171941   0.90078937 
   24800    77.975846    115.98316    -11.17166   0.90077885 
   24900    77.975666    115.98289   -11.171377   0.90076838 
   25000    77.975486    115.98263   -11.171093   0.90075797 
   25100    77.975305    115.98236   -11.170808   0.90074761 
   25200    77.975123    115.98209   -11.170522   0.90073731 
   25300    77.974941    115.98182   -11.170235   0.90072707 
   25400    77.974758    115.98154   -11.169948   0.90071688 
   25500    77.974575    115.98127   -11.169659   0.90070675 
   25600    77.974392      115.981   -11.169369   0.90069667 
   25700    77.974207    115.98072   -11.169078   0.90068664 
   25800    77.974022    115.98045   -11.168786   0.90067667 
   25900    77.973837    115.98017   -11.168493   0.90066676 
   26000    77.973651     115.9799     -11.1682    0.9006569 
   26100    77.973465    115.97962   -11.167905    0.9006471 
   26200    77.973278    115.97934   -11.167609   0.90063735 
   26300     77.97309    115.97906   -11.167312   0.90062766 
   26400    77.972902    115.97878   -11.167014   0.90061802 
   26500    77.972714     115.9785   -11.166715   0.90060843 
   26600    77.972525    115.97822   -11.166416    0.9005989 
   26700    77.972335    115.97794   -11.166115   0.90058943 
   26800    77.972145    115.97766   -11.165813   0.90058001 
   26900    77.971954    115.97737    -11.16551   0.90057064 
   27000    77.971763    115.97709   -11.165207   0.90056133 
   27100    77.971571     115.9768   -11.164902   0.90055208 
   27200    77.971379    115.97652   -11.164596   0.90054288 
   27300    77.971186    115.97623   -11.164289   0.90053373 
   27400    77.970993    115.97594   -11.163982   0.90052464 
   27500    77.970799    115.97565   -11.163673    0.9005156 
   27600    77.970605    115.97537   -11.163363   0.90050662 
   27700     77.97041    115.97508   -11.163052   0.90049769 
   27800    77.970215    115.97479   -11.162741   0.90048882 
   27900    77.970019    115.97449   -11.162428      0.90048 
   28000    77.969823     115.9742   -11.162115   0.90047123 
   28100    77.969626    115.97391     -11.1618   0.90046252 
   28200    77.969428    115.97362   -11.161484   0.90045387 
   28300    77.969231    115.97332   -11.161168   0.90044526 
   28400    77.969032    115.97303    -11.16085   0.90043672 
   28500    77.968833    115.97273   -11.160532   0.90042822 
   28600    77.968634    115.97243   -11.160212   0.90041978 
   28700    77.968434    115.97214   -11.159892    0.9004114 
   28800    77.968234    115.97184    -11.15957   0.90040307 
   28900    77.968033    115.97154   -11.159248   0.90039479 
   29000    77.967832    115.97124   -11.158925   0.90038657 
   29100     77.96763    115.97094     -11.1586    0.9003784 
   29200    77.967428    115.97064   -11.158275   0.90037028 
   29300    77.967225    115.97034   -11.157949   0.90036222 
   29400    77.967021    115.97004   -11.157621   0.90035421 
   29500    77.966818    115.96973   -11.157293   0.90034626 
   29600    77.966613    115.96943   -11.156964   0.90033836 
   29700    77.966409    115.96912   -11.156634   0.90033051 
   29800    77.966204    115.96882   -11.156303   0.90032272 
   29900    77.965998    115.96851   -11.155971   0.90031498 
   30000    77.965792    115.96821   -11.155637    0.9003073 
   30100    77.965585     115.9679   -11.155303   0.90029967 
   30200    77.965378    115.96759   -11.154968   0.90029209 
   30300     77.96517    115.96728   -11.154632   0.90028457 
   30400    77.964962    115.96697   -11.154296    0.9002771 
   30500    77.964754    115.96666   -11.153958   0.90026968 
   30600    77.964545    115.96635   -11.153619   0.90026232 
   30700    77.964336    115.96604   -11.153279   0.90025501 
   30800    77.964126    115.96573   -11.152938   0.90024775 
   30900    77.963915    115.96542   -11.152597   0.90024055 
   31000    77.963705     115.9651   -11.152254    0.9002334 
   31100    77.963493    115.96479    -11.15191    0.9002263 
   31200    77.963282    115.96447   -11.151566   0.90021926 
   31300    77.963069    115.96416    -11.15122   0.90021227 
   31400    77.962857    115.96384   -11.150874   0.90020533 
   31500    77.962644    115.96352   -11.150526   0.90019845 
   31600     77.96243    115.96321   -11.150178   0.90019162 
   31700    77.962216    115.96289   -11.149828   0.90018484 
   31800    77.962002    115.96257   -11.149478   0.90017812 
   31900    77.961787    115.96225   -11.149127   0.90017145 
   32000    77.961572    115.96193   -11.148775   0.90016483 
   32100    77.961356    115.96161   -11.148422   0.90015826 
